Frequency, Re(SMin1Min1), Im(SMin1Min1), Re(SMax1Min1), Im(SMax1Min1)
2.000000000000000000e+01,-2.077713239410463875e-01,-6.157426725212483687e-01,-1.655166750719766489e-01,2.257604372857575925e-02
2.001200000000000045e+01,-2.223142001135872126e-01,-6.067975017109903391e-01,-1.712169656289676545e-01,1.863585562773389243e-02
2.002400000000000091e+01,-2.366114745489470428e-01,-5.973367377996027239e-01,-1.771013183974840532e-01,1.488428458737479747e-02
2.003600000000000136e+01,-2.506403169204537429e-01,-5.873651161589227288e-01,-1.831643514300140829e-01,1.133023469299148343e-02
2.004799999999999827e+01,-2.643778198442745531e-01,-5.768884569838482745e-01,-1.894002338155043319e-01,7.982498638952752884e-03
2.005999999999999872e+01,-2.778010527766534565e-01,-5.659136829124541412e-01,-1.958026848784330809e-01,4.849734639152441552e-03
2.007199999999999918e+01,-2.908871174551332373e-01,-5.544488336971700182e-01,-2.023649746464050436e-01,1.940443032838774697e-03
2.008399999999999963e+01,-3.036132046880967161e-01,-5.425030778066654014e-01,-2.090799256149718510e-01,-7.370573323682714150e-04
2.009600000000000009e+01,-3.159566522863229143e-01,-5.300867208546299336e-01,-2.159399158316952783e-01,-3.174652855552585404e-03
2.010800000000000054e+01,-3.278950039213843204e-01,-5.172112107691172467e-01,-2.229368833144698692e-01,-5.364458988918179017e-03
2.012000000000000099e+01,-3.394060686885703726e-01,-5.038891396346775187e-01,-2.300623318119798255e-01,-7.298844007429073494e-03
2.013200000000000145e+01,-3.504679811466619443e-01,-4.901342421588490983e-01,-2.373073379066729105e-01,-8.970452652889523981e-03
2.014399999999999835e+01,-3.610592616037036628e-01,-4.759613907344383277e-01,-2.446625594531918191e-01,-1.037222956385119681e-02
2.015599999999999881e+01,-3.711588764166304788e-01,-4.613865870893502641e-01,-2.521182453376199506e-01,-1.149744240350630137e-02
2.016799999999999926e+01,-3.807462980734715452e-01,-4.464269505361221357e-01,-2.596642465354669915e-01,-1.233970459952071080e-02
2.017999999999999972e+01,-3.898015648301050295e-01,-4.311007028535542851e-01,-2.672900284389820857e-01,-1.289299761207070814e-02
2.019200000000000017e+01,-3.983053396785760092e-01,-4.154271498528387951e-01,-2.749846844173331473e-01,-1.315169264971974630e-02
2.020400000000000063e+01,-4.062389684314818283e-01,-3.994266596999085928e-01,-2.827369505664126259e-01,-1.311057175662713736e-02
2.021600000000000108e+01,-4.135845367163787922e-01,-3.831206380841586934e-01,-2.905352215987453413e-01,-1.276484819940051571e-02
2.022800000000000153e+01,-4.203249256855869920e-01,-3.665315003411385719e-01,-2.983675678181621493e-01,-1.211018608727882501e-02
2.023999999999999844e+01,-4.264438662601507946e-01,-3.496826406528214526e-01,-3.062217531186789965e-01,-1.114271916538428497e-02
2.025199999999999889e+01,-4.319259917417695993e-01,-3.325983984635374480e-01,-3.140852539425043610e-01,-9.859068727439215113e-03
2.026399999999999935e+01,-4.367568886431885677e-01,-3.153040222624794997e-01,-3.219452791282733095e-01,-8.256360601500548069e-03
2.027599999999999980e+01,-4.409231456056099119e-01,-2.978256308942930919e-01,-3.297887905777026618e-01,-6.332241169832756970e-03
2.028800000000000026e+01,-4.444124002908635962e-01,-2.801901725680910893e-01,-3.376025246666904400e-01,-4.084892391990390358e-03
2.030000000000000071e+01,-4.472133841562644929e-01,-2.624253817414730627e-01,-3.453730143257635055e-01,-1.513045808374665572e-03
2.031200000000000117e+01,-4.493159650409202510e-01,-2.445597340601783631e-01,-3.530866117145620708e-01,1.384004490147625489e-03
2.032400000000000162e+01,-4.507111875135257906e-01,-2.266223995354567367e-01,-3.607295114158234894e-01,4.606389932575799366e-03
2.033599999999999852e+01,-4.513913109531085266e-01,-2.086431941401778178e-01,-3.682877740761721919e-01,8.153656575758477798e-03
2.034799999999999898e+01,-4.513498453554385947e-01,-1.906525300009820068e-01,-3.757473504238373896e-01,1.202475523959052085e-02
2.035999999999999943e+01,-4.505815848787235733e-01,-1.726813643576019797e-01,-3.830941055972554299e-01,1.621803265112249301e-02
2.037199999999999989e+01,-4.490826391623072844e-01,-1.547611474514035412e-01,-3.903138437234432989e-01,2.073122357190043674e-02
2.038400000000000034e+01,-4.468504624712497653e-01,-1.369237694939518801e-01,-3.973923326908038178e-01,2.556144387589854780e-02
2.039600000000000080e+01,-4.438838807374900219e-01,-1.192015068523732818e-01,-4.043153290678423439e-01,3.070518453920566618e-02
2.040800000000000125e+01,-4.401831165845538907e-01,-1.016269675720385679e-01,-4.110686031269657481e-01,3.615830649711794520e-02
2.042000000000000171e+01,-4.357498124371694259e-01,-8.423303633854108130e-02,-4.176379639410169320e-01,4.191603631969211680e-02
2.043199999999999861e+01,-4.305870518294152016e-01,-6.705281896031305144e-02,-4.240092845294926027e-01,4.797296265318772707e-02
2.044399999999999906e+01,-4.246993790349040676e-01,-5.011958643062530000e-02,-4.301685270413383999e-01,5.432303337230628276e-02
2.045599999999999952e+01,-4.180928171497846901e-01,-3.346671860354159117e-02,-4.361017679717174578e-01,6.095955338676014440e-02
2.046799999999999997e+01,-4.107748847636503720e-01,-1.712764749244351584e-02,-4.417952234212197959e-01,6.787518304570575034e-02
2.048000000000000043e+01,-4.027546113547829099e-01,-1.135800172874765679e-03,-4.472352744172966021e-01,7.506193708484150406e-02
2.049200000000000088e+01,-3.940425515440614812e-01,1.447545875666623148e-02,-4.524084923293564264e-01,8.251118406378293857e-02
2.050400000000000134e+01,-3.846507983363324779e-01,2.967288523104510620e-02,-4.573016644206838732e-01,9.021364624563278645e-02
2.051599999999999824e+01,-3.745929954687581276e-01,4.442341439609313186e-02,-4.619018195919990522e-01,9.815939987658475752e-02
2.052799999999999869e+01,-3.638843489724978286e-01,5.869422004083998251e-02,-4.661962543830125427e-01,1.063378758310172811e-01
2.053999999999999915e+01,-3.525416380369458813e-01,7.245277494648032224e-02,-4.701725593093816769e-01,1.147378605967834114e-01
2.055199999999999960e+01,-3.405832252442644870e-01,8.566691234246189002e-02,-4.738186456231249788e-01,1.233474975865929552e-01
2.056400000000000006e+01,-3.280290662163954374e-01,9.830488868694563231e-02,-4.771227725943180675e-01,1.321542887741627426e-01
2.057600000000000051e+01,-3.149007186865070418e-01,1.103354480143919764e-01,-4.800735754208043105e-01,1.411450966686001729e-01
2.058800000000000097e+01,-3.012213509723172256e-01,1.217278881163785381e-01,-4.826600938803488061e-01,1.503061466569974580e-01
2.060000000000000142e+01,-2.870157497894893495e-01,1.324521288424875265e-01,-4.848718018459520218e-01,1.596230297636163364e-01
2.061199999999999832e+01,-2.723103272996292290e-01,1.424787828256906530e-01,-4.866986377896428406e-01,1.690807058941931618e-01
2.062399999999999878e+01,-2.571331272390098843e-01,1.517792289504552028e-01,-4.881310364027428572e-01,1.786635076558805157e-01
2.063599999999999923e+01,-2.415138299215375539e-01,1.603256888910528366e-01,-4.891599614609954405e-01,1.883551448668593642e-01
2.064799999999999969e+01,-2.254837558521138041e-01,1.680913070517773555e-01,-4.897769400608484869e-01,1.981387098949795589e-01
2.066000000000000014e+01,-2.090758676255063397e-01,1.750502342388406407e-01,-4.899740983481152834e-01,2.079966839912595900e-01
2.067200000000000060e+01,-1.923247697205794915e-01,1.811777153852011657e-01,-4.897441988520349621e-01,2.179109448120248871e-01
2.068400000000000105e+01,-1.752667057312506937e-01,1.864501816332720940e-01,-4.890806795258906825e-01,2.278627753522943500e-01
2.069600000000000151e+01,-1.579395525040388215e-01,1.908453470556647769e-01,-4.879776945795786802e-01,2.378328745426066260e-01
2.070799999999999841e+01,-1.403828105783670732e-01,1.943423102598461349e-01,-4.864301571694018000e-01,2.478013697914286384e-01
2.071999999999999886e+01,-1.226375902505667942e-01,1.969216610777948517e-01,-4.844337839855675787e-01,2.577478317851626954e-01
2.073199999999999932e+01,-1.047465925070809739e-01,1.985655924855845855e-01,-4.819851417480390809e-01,2.676512918870159741e-01
2.074399999999999977e+01,-8.675408399738952780e-02,1.992580178293167914e-01,-4.790816955861318949e-01,2.774902625042076632e-01
2.075600000000000023e+01,-6.870586514479570805e-02,1.989846933520114658e-01,-4.757218592363933740e-01,2.872427608191422399e-01
2.076800000000000068e+01,-5.064923042447770640e-02,1.977333459203072519e-01,-4.719050469464535769e-01,2.968863363038278802e-01
2.078000000000000114e+01,-3.263291977541814964e-02,1.954938057392493767e-01,-4.676317269196724191e-01,3.063981024568485090e-01
2.079200000000000159e+01,-1.470706005807079914e-02,1.922581437177545982e-01,-4.629034760763456324e-01,3.157547732176665400e-01
2.080399999999999849e+01,3.076904574610609625e-03,1.880208130061315208e-01,-4.577230358421005563e-01,3.249327045228787014e-01
2.081599999999999895e+01,2.066629455618643543e-02,1.827787940704355407e-01,-4.520943686030464703e-01,3.339079414720129702e-01
2.082799999999999940e+01,3.800729021383349865e-02,1.765317424968597115e-01,-4.460227143907115610e-01,3.426562715652393121e-01
2.083999999999999986e+01,5.504504167708582779e-02,1.692821385335974149e-01,-4.395146472782273106e-01,3.511532844607837545e-01
2.085200000000000031e+01,7.172379453409814809e-02,1.610354371791780370e-01,-4.325781308836678107e-01,3.593744386741961061e-01
2.086400000000000077e+01,8.798703232768481652e-02,1.518002174170469121e-01,-4.252225722877812641e-01,3.672951356038405279e-01
2.087600000000000122e+01,1.037776368998481469e-01,1.415883289788799348e-01,-4.174588735831403219e-01,3.748908012154835712e-01
2.088800000000000168e+01,1.190380674768751479e-01,1.304150347972027890e-01,-4.092994801816106643e-01,3.821369756524573558e-01
2.089999999999999858e+01,1.337105592341249760e-01,1.182991470855530441e-01,-4.007584249191076808e-01,3.890094109554195212e-01
2.091199999999999903e+01,1.477373418876127831e-01,1.052631547667227524e-01,-3.918513669132532296e-01,3.954841769763404180e-01
2.092399999999999949e+01,1.610608786260475100e-01,9.133333976262053566e-02,-3.825956240535852149e-01,4.015377754543240640e-01
2.093599999999999994e+01,1.736241254209852647e-01,7.653987946942490683e-02,-3.730101979383336763e-01,4.071472620861704139e-01
2.094800000000000040e+01,1.853708104332042472e-01,6.091693257699234282e-02,-3.631157900200406297e-01,4.122903762721897847e-01
2.096000000000000085e+01,1.962457328715143112e-01,4.450270525964207524e-02,-3.529348076878390805e-01,4.169456780487837966e-01
2.097200000000000131e+01,2.061950802577543762e-01,2.733949467550234047e-02,-3.424913590008654141e-01,4.210926915349649247e-01
2.098400000000000176e+01,2.151667626126044786e-01,9.473706672396112888e-03,-3.318112347987574040e-01,4.247120540226370644e-01
2.099599999999999866e+01,2.231107616065042820e-01,-9.044155381154649412e-03,-3.209218769551834827e-01,4.277856696330125663e-01
2.100799999999999912e+01,2.299794922260025853e-01,-2.815953363226592412e-02,-3.098523316121575832e-01,4.302968662479166317e-01
2.101999999999999957e+01,2.357281739975955193e-01,-4.781389347432570686e-02,-2.986331863396601838e-01,4.322305542095306041e-01
2.103200000000000003e+01,2.403152083003358142e-01,-6.794483855057689703e-02,-2.872964903087790178e-01,4.335733850709954096e-01
2.104400000000000048e+01,2.437025577983011615e-01,-8.848626527236772010e-02,-2.758756567491444933e-01,4.343139084793888327e-01
2.105600000000000094e+01,2.458561235499307496e-01,-1.093685586659565584e-01,-2.644053471828428648e-01,4.344427250889428271e-01
2.106800000000000139e+01,2.467461149196096826e-01,-1.305188308421948162e-01,-2.529213371867187199e-01,4.339526332433747968e-01
2.107999999999999829e+01,2.463474070453792464e-01,-1.518612027750221027e-01,-2.414603637306609318e-01,4.328387670394847064e-01
2.109199999999999875e+01,2.446398803231761010e-01,-1.733171293835823745e-01,-2.300599544673338492e-01,4.310987232974824446e-01
2.110399999999999920e+01,2.416087361702255187e-01,-1.948057671485456943e-01,-2.187582397035484072e-01,4.287326749240775170e-01
2.111599999999999966e+01,2.372447832447051874e-01,-2.162443826699611549e-01,-2.075937481577377897e-01,4.257434681689003519e-01
2.112800000000000011e+01,2.315446883402406397e-01,-2.375487997083269576e-01,-1.966051879935825364e-01,4.221367013488476205e-01
2.114000000000000057e+01,2.245111863540532604e-01,-2.586338813641303469e-01,-1.858312150062315371e-01,4.179207827526078556e-01
2.115200000000000102e+01,2.161532440549108203e-01,-2.794140431673510783e-01,-1.753101902138527457e-01,4.131069656412313940e-01
2.116400000000000148e+01,2.064861728552190856e-01,-2.998037919938437157e-01,-1.650799294612065593e-01,4.077093585303522838e-01
2.117599999999999838e+01,1.955316864193982207e-01,-3.197182849278629169e-01,-1.551774479611536528e-01,4.017449092733823557e-01
2.118799999999999883e+01,1.833178997112715758e-01,-3.390739014776509297e-01,-1.456387029720871418e-01,3.952333618579774166e-01
2.119999999999999929e+01,1.698792669841045488e-01,-3.577888219512181944e-01,-1.364983380225859022e-01,3.881971852730752293e-01
2.121199999999999974e+01,1.552564572296082079e-01,-3.757836043383059321e-01,-1.277894322383982539e-01,3.806614742909910087e-01
2.122400000000000020e+01,1.394961667034096409e-01,-3.929817517434519569e-01,-1.195432583928330156e-01,3.726538225265916271e-01
2.123600000000000065e+01,1.226508693054190885e-01,-4.093102622926071410e-01,-1.117890532829673156e-01,3.642041686693747726e-01
2.124800000000000111e+01,1.047785067823223393e-01,-4.247001535034905517e-01,-1.045538039273725683e-01,3.553446173191804891e-01
2.126000000000000156e+01,8.594212190130075257e-02,-4.390869533738255281e-01,-9.786205288558220972e-02,3.461092363760829294e-01
2.127199999999999847e+01,6.620943888323552184e-02,-4.524111509004112852e-01,-9.173572571795114705e-02,3.365338334235328799e-01
2.128399999999999892e+01,4.565239644462706220e-02,-4.646185993873320208e-01,-8.619398324276379697e-02,3.266557139853239478e-01
2.129599999999999937e+01,2.434663974698274974e-02,-4.756608667178253702e-01,-8.125310081451969646e-02,3.165134249171702718e-01
2.130799999999999983e+01,2.370978360087238387e-03,-4.854955277297716698e-01,-7.692637635492692583e-02,3.061464864999559055e-01
2.132000000000000028e+01,-2.019318201301453786e-02,-4.940863949212975781e-01,-7.322406833061542719e-02,2.955951170245087467e-01
2.133200000000000074e+01,-4.326242584612973591e-02,-5.014036848889590336e-01,-7.015336430459703787e-02,2.848999537898700418e-01
2.134400000000000119e+01,-6.675192367439983232e-02,-5.074241191309161181e-01,-6.771838010905295580e-02,2.741017744751312879e-01
2.135600000000000165e+01,-9.057602903790318294e-02,-5.121309590948878165e-01,-6.592018911224305222e-02,2.632412227888123457e-01
2.136799999999999855e+01,-1.146488681151215244e-01,-5.155139765789416018e-01,-6.475688049887516617e-02,2.523585421527723138e-01
2.137999999999999901e+01,-1.388849140140771821e-01,-5.175693617675741764e-01,-6.422364496662717748e-02,2.414933209462536146e-01
2.139199999999999946e+01,-1.631995382008533946e-01,-5.182995722744242473e-01,-6.431288577530923367e-02,2.306842525292399915e-01
2.140399999999999991e+01,-1.875095322110854612e-01,-5.177131275392399257e-01,-6.501435268062698281e-02,2.199689128942332872e-01
2.141600000000000037e+01,-2.117335935831848870e-01,-5.158243537685838209e-01,-6.631529595018081924e-02,2.093835583754687091e-01
2.142800000000000082e+01,-2.357927708446761750e-01,-5.126530853015297540e-01,-6.820063740067830449e-02,1.989629453884355637e-01
2.144000000000000128e+01,-2.596108633442393843e-01,-5.082243288140122495e-01,-7.065315521479717531e-02,1.887401736952882825e-01
2.145199999999999818e+01,-2.831147727216806742e-01,-5.025678971455685984e-01,-7.365367919315368717e-02,1.787465542075507285e-01
2.146399999999999864e+01,-3.062348038169529496e-01,-4.957180197431731994e-01,-7.718129306804615009e-02,1.690115018598860319e-01
2.147599999999999909e+01,-3.289049138104814807e-01,-4.877129367773869184e-01,-8.121354054529592026e-02,1.595624536297393925e-01
2.148799999999999955e+01,-3.510629093376788079e-01,-4.785944839094956604e-01,-8.572663184077640441e-02,1.504248113471988446e-01
2.150000000000000000e+01,-3.726505922106467805e-01,-4.684076744921101265e-01,-9.069564762968580773e-02,1.416219085458100269e-01
2.151200000000000045e+01,-3.936138551962484189e-01,-4.572002856896606460e-01,-9.609473751890709736e-02,1.331750002534496380e-01
2.152400000000000091e+01,-4.139027300321856950e-01,-4.450224546314623941e-01,-1.018973103748187919e-01,1.251032743160023497e-01
2.153600000000000136e+01,-4.334713905080930241e-01,-4.319262902808596039e-01,-1.080762140796872744e-01,1.174238825858077290e-01
2.154800000000000182e+01,-4.522781139982412490e-01,-4.179655062418058398e-01,-1.146039025384859439e-01,1.101519900897021675e-01
2.155999999999999872e+01,-4.702852053136444832e-01,-4.031950792501495240e-01,-1.214525880048126366e-01,1.033008401133950760e-01
2.157199999999999918e+01,-4.874588871560622261e-01,-3.876709376295601195e-01,-1.285943770307866885e-01,9.688183299321156960e-02
2.158399999999999963e+01,-5.037691618221493695e-01,-3.714496835475963876e-01,-1.360013885641784548e-01,9.090461628366383606e-02
2.159600000000000009e+01,-5.191896491454919271e-01,-3.545883524970830369e-01,-1.436458529115515470e-01,8.537718385870386728e-02
2.160800000000000054e+01,-5.336974060042977142e-01,-3.371442130588958030e-01,-1.515001904559163393e-01,8.030598139251135525e-02
2.162000000000000099e+01,-5.472727330963222947e-01,-3.191746096737472782e-01,-1.595370691616715686e-01,7.569601553645573244e-02
2.163200000000000145e+01,-5.598989751267346993e-01,-3.007368508545741892e-01,-1.677294400225572413e-01,7.155096394490585709e-02
2.164399999999999835e+01,-5.715623211117211167e-01,-2.818881449879006573e-01,-1.760505497185343438e-01,6.787328308368828500e-02
2.165599999999999881e+01,-5.822516122165650732e-01,-2.626855855686522356e-01,-1.844739298604824440e-01,6.466431045935193411e-02
2.166799999999999926e+01,-5.919581654707392060e-01,-2.431861873358692749e-01,-1.929733623402992426e-01,6.192435751134862248e-02
2.167999999999999972e+01,-6.006756228834693179e-01,-2.234469742496248967e-01,-2.015228205032891240e-01,5.965278888860298806e-02
2.169200000000000017e+01,-6.083998369652321436e-01,-2.035251194639579320e-01,-2.100963861678107891e-01,5.784808316387347188e-02
2.170400000000000063e+01,-6.151288054744462608e-01,-1.834781362569193053e-01,-2.186681430016670369e-01,5.650786920565412791e-02
2.171600000000000108e+01,-6.208626703576956007e-01,-1.633641170778365459e-01,-2.272120475163505737e-01,5.562893142054503581e-02
2.172800000000000153e+01,-6.256037982894303573e-01,-1.432420152035931982e-01,-2.357017800786020412e-01,5.520717591136223984e-02
2.173999999999999844e+01,-6.293569628151832740e-01,-1.231719596347181089e-01,-2.441105800167176210e-01,5.523754831441157753e-02
2.175199999999999889e+01,-6.321296506024397521e-01,-1.032155884177668181e-01,-2.524110713041020082e-01,5.571389278515807147e-02
2.176399999999999935e+01,-6.339325162540049297e-01,-8.343637811644433189e-02,-2.605750886528251931e-01,5.662874048224240259e-02
2.177599999999999980e+01,-6.347800108127389374e-01,-6.389993723454513719e-02,-2.685735183765812772e-01,5.797301526710995495e-02
2.178800000000000026e+01,-6.346912073874920734e-01,-4.467421868315517991e-02,-2.763761742922268838e-01,5.973564467484115958e-02
2.180000000000000071e+01,-6.336908417016307027e-01,-2.582959081477324836e-02,-2.839517363329975841e-01,6.190306623024781352e-02
2.181200000000000117e+01,-6.318105737415603551e-01,-7.438688593480662775e-03,-2.912677883401494916e-01,6.445862385694994812e-02
2.182400000000000162e+01,-6.290904565396997494e-01,1.042405245563138814e-02,-2.982910011791093385e-01,6.738185770124326124e-02
2.183599999999999852e+01,-6.255805667462130959e-01,2.768329391243227328e-02,-3.049875167357014583e-01,7.064770460255563600e-02
2.184799999999999898e+01,-6.213427067228496359e-01,4.426424842061107978e-02,-3.113235953737652495e-01,7.422564707829905351e-02
2.185999999999999943e+01,-6.164520286559117546e-01,6.009481084643017446e-02,-3.172665907162819376e-01,7.807887692051380946e-02
