Frequency, Re(SMin1Min1), Im(SMin1Min1), Re(SMax1Min1), Im(SMax1Min1)
2.000000000000000000e+01,-4.366663618134041802e-01,-3.941609224213988294e-01,-3.124113451014458032e-01,-5.254003787489606309e-02
2.001200000000000045e+01,-4.434249990270796582e-01,-3.787693446743768955e-01,-3.197786139610723777e-01,-5.178683866809200009e-02
2.002400000000000091e+01,-4.496957049058163958e-01,-3.631580554420972273e-01,-3.271602564923597467e-01,-5.078706012612344695e-02
2.003600000000000136e+01,-4.554682881363468772e-01,-3.473438648300278819e-01,-3.345476671024086857e-01,-4.953895389508580771e-02
2.004799999999999827e+01,-4.607331946584851678e-01,-3.313440786845269770e-01,-3.419321298140458043e-01,-4.804110177418495498e-02
2.005999999999999872e+01,-4.654815318337697239e-01,-3.151764695502407565e-01,-3.493048332450138793e-01,-4.629242122745886451e-02
2.007199999999999918e+01,-4.697050908695434290e-01,-2.988592463728484971e-01,-3.566568858374610240e-01,-4.429217002155490246e-02
2.008399999999999963e+01,-4.733963674210693862e-01,-2.824110230806091693e-01,-3.639793312730288388e-01,-4.203994997688457330e-02
2.009600000000000009e+01,-4.765485803058708281e-01,-2.658507861843553699e-01,-3.712631640078781214e-01,-3.953570982499770431e-02
2.010800000000000054e+01,-4.791556882767770698e-01,-2.491978615403518948e-01,-3.784993448616204570e-01,-3.677974717065186916e-02
2.012000000000000099e+01,-4.812124048127133236e-01,-2.324718804241548142e-01,-3.856788165942609536e-01,-3.377270956268061536e-02
2.013200000000000145e+01,-4.827142108992433789e-01,-2.156927450662382006e-01,-3.927925194058908276e-01,-3.051559468338040440e-02
2.014399999999999835e+01,-4.836573657839948193e-01,-1.988805938013989694e-01,-3.998314062950113490e-01,-2.700974967171377097e-02
2.015599999999999881e+01,-4.840389157052360503e-01,-1.820557659841462173e-01,-4.067864582130870654e-01,-2.325686960101239903e-02
2.016799999999999926e+01,-4.838567006050397690e-01,-1.652387668212054184e-01,-4.136486989549728044e-01,-1.925899513717274983e-02
2.017999999999999972e+01,-4.831093588514174253e-01,-1.484502322699468579e-01,-4.204092097276180273e-01,-1.501850940830718427e-02
2.019200000000000017e+01,-4.817963300064890264e-01,-1.317108941481058837e-01,-4.270591433423855943e-01,-1.053813412170121963e-02
2.020400000000000063e+01,-4.799178556900133841e-01,-1.150415455956303595e-01,-4.335897379798771545e-01,-5.820924968300146551e-03
2.021600000000000108e+01,-4.774749785994244489e-01,-9.846300702379362502e-02,-4.399923304799973067e-01,-8.702663592054381454e-04
2.022800000000000153e+01,-4.744695397587069263e-01,-8.199609268001945006e-02,-4.462583691141979725e-01,4.310134457623395095e-03
2.023999999999999844e+01,-4.709041740789634556e-01,-6.566157794927611480e-02,-4.523794258013699165e-01,9.716253848822260092e-03
2.025199999999999889e+01,-4.667823043233174651e-01,-4.948016750429436866e-02,-4.583472077336546713e-01,1.534375876065510215e-02
2.026399999999999935e+01,-4.621081335776980881e-01,-3.347246440771342590e-02,-4.641535683834209780e-01,2.118801414044491765e-02
2.027599999999999980e+01,-4.568866363371651418e-01,-1.765894025900053427e-02,-4.697905178679432914e-01,2.724409075519065512e-02
2.028800000000000026e+01,-4.511235483245292222e-01,-2.059906468543112532e-03,-4.752502326536008348e-01,3.350677334647030048e-02
2.030000000000000071e+01,-4.448253551642044057e-01,1.330451326997145536e-02,-4.805250645869072468e-01,3.997056905956949263e-02
2.031200000000000117e+01,-4.379992800393711083e-01,2.841440924938690160e-02,-4.856075492452077147e-01,4.662971608406001750e-02
2.032400000000000162e+01,-4.306532704647116350e-01,4.325011071357097447e-02,-4.904904136054118458e-01,5.347819244278630146e-02
2.033599999999999852e+01,-4.227959843100728698e-01,5.779220948128147017e-02,-4.951665830346798081e-01,6.050972486642239301e-02
2.034799999999999898e+01,-4.144367752125172610e-01,7.202158220652363219e-02,-4.996291876124578923e-01,6.771779769139896210e-02
2.035999999999999943e+01,-4.055856775153485194e-01,8.591941126495328263e-02,-5.038715677986509434e-01,7.509566172002686557e-02
2.037199999999999989e+01,-3.962533908727009502e-01,9.946720426852519170e-02,-5.078872794680496794e-01,8.263634298318481286e-02
2.038400000000000034e+01,-3.864512646574738142e-01,1.126468122229046798e-01,-5.116700983362504340e-01,9.033265134773735272e-02
2.039600000000000080e+01,-3.761912823084858637e-01,1.254404463545639170e-01,-5.152140238073282807e-01,9.817718891313000074e-02
2.040800000000000125e+01,-3.654860457499813919e-01,1.378306936466120458e-01,-5.185132822783276030e-01,1.061623581441974579e-01
2.042000000000000171e+01,-3.543487600129600623e-01,1.498005311343085511e-01,-5.215623299402819546e-01,1.142803696901440735e-01
2.043199999999999861e+01,-3.427932181832825109e-01,1.613333390228470221e-01,-5.243558551198556072e-01,1.225232498429108252e-01
2.044399999999999906e+01,-3.308337867961764767e-01,1.724129127012802576e-01,-5.268887802099309070e-01,1.308828475916866130e-01
2.045599999999999952e+01,-3.184853917906999010e-01,1.830234737373923615e-01,-5.291562632413967515e-01,1.393508412341026570e-01
2.046799999999999997e+01,-3.057635051307899254e-01,1.931496799489447469e-01,-5.311536991521744744e-01,1.479187445087994379e-01
2.048000000000000043e+01,-2.926841321919964045e-01,2.027766346568092293e-01,-5.328767208129723265e-01,1.565779122182991978e-01
2.049200000000000088e+01,-2.792638000047486524e-01,2.118898952352989695e-01,-5.343211998725697631e-01,1.653195453157330075e-01
2.050400000000000134e+01,-2.655195464360254332e-01,2.204754810843078394e-01,-5.354832474884489990e-01,1.741346954337189001e-01
2.051599999999999824e+01,-2.514689103817329685e-01,2.285198811567619170e-01,-5.363592150113788426e-01,1.830142688387160765e-01
2.052799999999999869e+01,-2.371299230318409113e-01,2.360100611833036433e-01,-5.369456946951642884e-01,1.919490297993932670e-01
2.053999999999999915e+01,-2.225211002595408050e-01,2.429334707441474506e-01,-5.372395205050711775e-01,2.009296033629465184e-01
2.055199999999999960e+01,-2.076614361739871906e-01,2.492780503455973573e-01,-5.372377691005865152e-01,2.099464775390472437e-01
2.056400000000000006e+01,-1.925703978642077097e-01,2.550322386657714602e-01,-5.369377610700193371e-01,2.189900048968929647e-01
2.057600000000000051e+01,-1.772679213487522720e-01,2.601849801407270513e-01,-5.363370624961313338e-01,2.280504035870339063e-01
2.058800000000000097e+01,-1.617744087321664193e-01,2.647257330683006615e-01,-5.354334869333438052e-01,2.371177578059998903e-01
2.060000000000000142e+01,-1.461107265549763945e-01,2.686444784126117979e-01,-5.342250978782756565e-01,2.461820177284336775e-01
2.061199999999999832e+01,-1.302982053088203585e-01,2.719317294972833365e-01,-5.327102118161897160e-01,2.552329989383915754e-01
2.062399999999999878e+01,-1.143586400723077823e-01,2.745785427799184442e-01,-5.308874019265722444e-01,2.642603813987710604e-01
2.063599999999999923e+01,-9.831429220642282085e-02,2.765765299042947656e-01,-5.287555025313264156e-01,2.732537080054106005e-01
2.064799999999999969e+01,-8.218789203025674006e-02,2.779178712298822074e-01,-5.263136143689651769e-01,2.822023827805018592e-01
2.066000000000000014e+01,-6.600264237911937504e-02,2.785953310406972250e-01,-5.235611107777657924e-01,2.910956687682786925e-01
2.067200000000000060e+01,-4.978222292694352985e-02,2.786022746369922753e-01,-5.204976448698824809e-01,2.999226857048516437e-01
2.068400000000000105e+01,-3.355079513372896671e-02,2.779326875137399511e-01,-5.171231577770113441e-01,3.086724075433394665e-01
2.069600000000000151e+01,-1.733300765627809534e-02,2.765811968291677636e-01,-5.134378880461831773e-01,3.173336599252490342e-01
2.070799999999999841e+01,-1.154002036695440199e-03,2.745430953645164873e-01,-5.094423822615569142e-01,3.258951176993405419e-01
2.071999999999999886e+01,1.496058154210175989e-02,2.718143681725596617e-01,-5.051375069646522054e-01,3.343453026000429151e-01
2.073199999999999932e+01,3.098459867109818952e-02,2.683917221069840875e-01,-5.005244619411270968e-01,3.426725812087634271e-01
2.074399999999999977e+01,4.689139556557927330e-02,2.642726184172027315e-01,-4.956047949368421190e-01,3.508651633333674247e-01
2.075600000000000023e+01,6.265380464597054833e-02,2.594553085832765338e-01,-4.903804178595163044e-01,3.589111009533650920e-01
2.076800000000000068e+01,7.824414117486733211e-02,2.539388735530043184e-01,-4.848536245144817181e-01,3.667982878911866251e-01
2.078000000000000114e+01,9.363420130819918863e-02,2.477232665275450330e-01,-4.790271099138302957e-01,3.745144603831423447e-01
2.079200000000000159e+01,1.087952619519338415e-01,2.408093594226931311e-01,-4.729039911873854640e-01,3.820471987371901190e-01
2.080399999999999849e+01,1.236980828501496738e-01,2.331989931098476243e-01,-4.664878301112567183e-01,3.893839302784021239e-01
2.081599999999999895e+01,1.383129113657668718e-01,2.248950315131212352e-01,-4.597826572550343660e-01,3.965119337969100766e-01
2.082799999999999940e+01,1.526094904507693528e-01,2.159014196065994484e-01,-4.527929977317838306e-01,4.034183457268136208e-01
2.083999999999999986e+01,1.665570703389662455e-01,2.062232453179840275e-01,-4.455238985156426690e-01,4.100901682981122343e-01
2.085200000000000031e+01,1.801244245295641755e-01,1.958668053009874066e-01,-4.379809572698795117e-01,4.165142799165733045e-01
2.086400000000000077e+01,1.932798706645044162e-01,1.848396744887728649e-01,-4.301703526034929004e-01,4.226774480385726562e-01
2.087600000000000122e+01,2.059912969351799794e-01,1.731507792834503234e-01,-4.220988756466501068e-01,4.285663448187896352e-01
2.088800000000000168e+01,2.182261946844264722e-01,1.608104741722879427e-01,-4.137739628043171081e-01,4.341675658178954511e-01
2.089999999999999858e+01,2.299516978961681779e-01,1.478306214887561421e-01,-4.052037295132756567e-01,4.394676520644767437e-01
2.091199999999999903e+01,2.411346302869963598e-01,1.342246739561758773e-01,-3.963970047900802762e-01,4.444531157699466717e-01
2.092399999999999949e+01,2.517415607297343039e-01,1.200077595628330912e-01,-3.873633663166868857e-01,4.491104699963985869e-01
2.093599999999999994e+01,2.617388677473015957e-01,1.051967682200056209e-01,-3.781131757661250758e-01,4.534262625747312314e-01
2.094800000000000040e+01,2.710928138143621213e-01,8.981043954887342473e-02,-3.686576140232666887e-01,4.573871145630210022e-01
2.096000000000000085e+01,2.797696301923981443e-01,7.386945102833036847e-02,-3.590087159053692578e-01,4.609797635224203716e-01
2.097200000000000131e+01,2.877356129992806877e-01,5.739650561465953899e-02,-3.491794039341632461e-01,4.641911118688802351e-01
2.098400000000000176e+01,2.949572311751598730e-01,4.041641781615760987e-02,-3.391835206564316474e-01,4.670082805330681430e-01
2.099599999999999866e+01,3.014012469500156333e-01,2.295619707258135522e-02,-3.290358589537463185e-01,4.694186681267862316e-01
2.100799999999999912e+01,3.070348493431516723e-01,5.045127152512301344e-03,-3.187521897253193792e-01,4.714100157716532014e-01
2.101999999999999957e+01,3.118258011286961229e-01,-1.328515985699017798e-02,-3.083492862719613425e-01,4.729704776933906230e-01
2.103200000000000003e+01,3.157425995816650621e-01,-3.200061653154515073e-02,-2.978449446546955759e-01,4.740886976227051686e-01
2.104400000000000048e+01,3.187546511755143253e-01,-5.106472175830922139e-02,-2.872579992510596036e-01,4.747538909702605503e-01
2.105600000000000094e+01,3.208324602316064422e-01,-7.043843287524613472e-02,-2.766083326860972469e-01,4.749559326586117458e-01
2.106800000000000139e+01,3.219478313238287037e-01,-9.008015023791469955e-02,-2.659168792766216649e-01,4.746854503978275019e-01
2.107999999999999829e+01,3.220740850163063551e-01,-1.099456962485154815e-01,-2.552056210975788275e-01,4.739339230839017536e-01
2.109199999999999875e+01,3.211862862594298540e-01,-1.299883109582534169e-01,-2.444975757614852307e-01,4.726937838805793657e-01
2.110399999999999920e+01,3.192614844903099991e-01,-1.501586664027827200e-01,-2.338167749976676757e-01,4.709585274163611279e-01
2.111599999999999966e+01,3.162789641798315343e-01,-1.704049018469836752e-01,-2.231882331303401135e-01,4.687228203907914947e-01
2.112800000000000011e+01,3.122205042432589783e-01,-1.906726820917203358e-01,-2.126379045857348382e-01,4.659826147393349438e-01
2.114000000000000057e+01,3.070706443891650372e-01,-2.109052809277787155e-01,-2.021926296110308774e-01,4.627352623564708889e-01
2.115200000000000102e+01,3.008169561274146586e-01,-2.310436917032838156e-01,-1.918800674637730352e-01,4.589796302250514493e-01
2.116400000000000148e+01,2.934503157989427069e-01,-2.510267667966933347e-01,-1.817286164319407427e-01,4.547162146501032565e-01
2.117599999999999838e+01,2.849651766361026572e-01,-2.707913875528784597e-01,-1.717673201728738830e-01,4.499472531509671192e-01
2.118799999999999883e+01,2.753598365219015465e-01,-2.902726659422478206e-01,-1.620257600150619703e-01,4.446768324317754151e-01
2.119999999999999929e+01,2.646366978016245763e-01,-3.094041788403758542e-01,-1.525339330500537771e-01,4.389109907317763071e-01
2.121199999999999974e+01,2.528025152221474170e-01,-3.281182353985881428e-01,-1.433221160516124915e-01,4.326578127593769807e-01
2.122400000000000020e+01,2.398686278460190890e-01,-3.463461774870325027e-01,-1.344207154940024462e-01,4.259275153426256288e-01
2.123600000000000065e+01,2.258511706224724247e-01,-3.640187126457402056e-01,-1.258601041974522217e-01,4.187325218897794965e-01
2.124800000000000111e+01,2.107712612085266002e-01,-3.810662783840026435e-01,-1.176704454024397467e-01,4.110875237521427472e-01
2.126000000000000156e+01,1.946551576328605371e-01,-3.974194360347421129e-01,-1.098815053595615376e-01,4.030095266220912742e-01
2.127199999999999847e+01,1.775343824943353410e-01,-4.130092917120000706e-01,-1.025224558116632628e-01,3.945178801867396112e-01
2.128399999999999892e+01,1.594458095943589171e-01,-4.277679412527216063e-01,-9.562166803166168016e-02,3.856342893944698091e-01
2.129599999999999937e+01,1.404317092249608157e-01,-4.416289353678815033e-01,-8.920650035376909148e-02,3.763828058797912823e-01
2.130799999999999983e+01,1.205397487740557105e-01,-4.545277606038651275e-01,-8.330308138809192076e-02,3.667897983311000365e-01
2.132000000000000028e+01,9.982294586634471445e-02,-4.664023311456740872e-01,-7.793609132838025255e-02,3.568839008745183783e-01
2.133200000000000074e+01,7.833957192545043524e-02,-4.771934860029006242e-01,-7.312854393967890831e-02,3.466959388804833897e-01
2.134400000000000119e+01,5.615300481089045143e-02,-4.868454857309342243e-01,-6.890157193662561907e-02,3.362588319722886743e-01
2.135600000000000165e+01,3.333153003590925978e-02,-4.953065025763834783e-01,-6.527421852499581956e-02,3.256074744186780445e-01
2.136799999999999855e+01,9.948090988589924910e-03,-5.025290978171624845e-01,-6.226323787063563903e-02,3.147785935151002357e-01
2.137999999999999901e+01,-1.392001046651007365e-02,-5.084706801121402497e-01,-5.988290717488761739e-02,3.038105869877837928e-01
2.139199999999999946e+01,-3.819146066543763901e-02,-5.130939388946542667e-01,-5.814485287005142361e-02,2.927433408770672707e-01
2.140399999999999991e+01,-6.278132482184564656e-02,-5.163672472470907104e-01,-5.705789320042452956e-02,2.816180297553541045e-01
2.141600000000000037e+01,-8.760147754739952553e-02,-5.182650292813161252e-01,-5.662789912590249219e-02,2.704769014945913597e-01
2.142800000000000082e+01,-1.125610682809615321e-01,-5.187680878171699872e-01,-5.685767507984072766e-02,2.593630491007435923e-01
2.144000000000000128e+01,-1.375670160507274642e-01,-5.178638890868018096e-01,-5.774686063885266230e-02,2.483201723619280488e-01
2.145199999999999818e+01,-1.625245275273478895e-01,-5.155468022769479353e-01,-5.929185363006974491e-02,2.373923321961460553e-01
2.146399999999999864e+01,-1.873376320711725995e-01,-5.118182929285761684e-01,-6.148575462487098492e-02,2.266237006188991376e-01
2.147599999999999909e+01,-2.119097274662399277e-01,-5.066870705103406758e-01,-6.431833216418164634e-02,2.160583091666728461e-01
2.148799999999999955e+01,-2.361441302987896118e-01,-5.001691918297808126e-01,-6.777600744859306470e-02,2.057397983970274680e-01
2.150000000000000000e+01,-2.599446255043235121e-01,-4.922881232978054133e-01,-7.184185662924777449e-02,1.957111707300815129e-01
2.151200000000000045e+01,-2.832160104986936600e-01,-4.830747663654613722e-01,-7.649562827780900798e-02,1.860145483907958419e-01
2.152400000000000091e+01,-3.058646305431979018e-01,-4.725674516475810161e-01,-8.171377312421827799e-02,1.766909375506542368e-01
2.153600000000000136e+01,-3.277989035862438616e-01,-4.608119082680254275e-01,-8.746948276133159617e-02,1.677799989466992325e-01
2.154800000000000182e+01,-3.489298347844202453e-01,-4.478612157280532080e-01,-9.373273376264569523e-02,1.593198242736007797e-01
2.155999999999999872e+01,-3.691715232377025813e-01,-4.337757460221249306e-01,-1.004703335860149538e-01,1.513467165017054472e-01
2.157199999999999918e+01,-3.884416661723121278e-01,-4.186231036963929952e-01,-1.076459647934181613e-01,1.438949709765431073e-01
2.158399999999999963e+01,-4.066620688521311866e-01,-4.024780709347361429e-01,-1.152202245655745694e-01,1.369966527159097447e-01
2.159600000000000009e+01,-4.237591718568863852e-01,-3.854225634080344909e-01,-1.231506573046730890e-01,1.306813637630053204e-01
2.160800000000000054e+01,-4.396646109590228724e-01,-3.675456003449443232e-01,-1.313917793873935758e-01,1.249759928196975539e-01
2.162000000000000099e+01,-4.543158285376489025e-01,-3.489432888493476104e-01,-1.398950969592691052e-01,1.199044377399820366e-01
2.163200000000000145e+01,-4.676567590849921019e-01,-3.297188176377813806e-01,-1.486091201706559728e-01,1.154872899167623673e-01
2.164399999999999835e+01,-4.796386145751592167e-01,-3.099824488066838524e-01,-1.574793805750455966e-01,1.117414683068417014e-01
2.165599999999999881e+01,-4.902207978081492556e-01,-2.898514876642283578e-01,-1.664484626713469972e-01,1.086797900470805045e-01
2.166799999999999926e+01,-4.993719726388755054e-01,-2.694501998093419837e-01,-1.754560658780078553e-01,1.063104646557814364e-01
2.167999999999999972e+01,-5.070713183165124205e-01,-2.489096313544118533e-01,-1.844391196213656103e-01,1.046365001468295142e-01
2.169200000000000017e+01,-5.133099897531661071e-01,-2.283672725389862546e-01,-1.933319816247641709e-01,1.036550126096975749e-01
2.170400000000000063e+01,-5.180927948513774917e-01,-2.079664874389128837e-01,-2.020667576146080446e-01,1.033564366674288582e-01
2.171600000000000108e+01,-5.214400822116550538e-01,-1.878556141451707129e-01,-2.105737889113217243e-01,1.037236435688393549e-01
2.172800000000000153e+01,-5.233898056627035444e-01,-1.681866227017600468e-01,-2.187823616891905187e-01,1.047309873747936659e-01
2.173999999999999844e+01,-5.239996943757275760e-01,-1.491132055271031653e-01,-2.266216964160625291e-01,1.063433184845766488e-01
2.175199999999999889e+01,-5.233494079033140789e-01,-1.307881717739034222e-01,-2.340222757682062782e-01,1.085150278990867356e-01
2.176399999999999935e+01,-5.215424950534245374e-01,-1.133600294486079574e-01,-2.409175611042532750e-01,1.111892145479659449e-01
2.177599999999999980e+01,-5.187079076170785230e-01,-9.696867466819063253e-02,-2.472461278344486868e-01,1.142970997209795114e-01
2.178800000000000026e+01,-5.150007522576454111e-01,-8.174017391515298048e-02,-2.529542152579414838e-01,1.177578431471222181e-01
2.180000000000000071e+01,-5.106019091299348611e-01,-6.778072849089027130e-02,-2.579986342462959881e-01,1.214789381322704531e-01
2.181200000000000117e+01,-5.057161221552722852e-01,-5.517005165211766315e-02,-2.623499066548584113e-01,1.253573695569232260e-01
2.182400000000000162e+01,-5.005681952803473500e-01,-4.395456059231615809e-02,-2.659954280075826349e-01,1.292816980694121709e-01
2.183599999999999852e+01,-4.953970331888553069e-01,-3.414096768392815145e-02,-2.689423602309010675e-01,1.331351766738533005e-01
2.184799999999999898e+01,-4.904474583029586054e-01,-2.569101441047101642e-02,-2.712198909453052975e-01,1.367999062997074522e-01
2.185999999999999943e+01,-4.859600167775315338e-01,-1.851818175296587876e-02,-2.728804620463217701e-01,1.401618973339941177e-01
