Frequency, Re(SMin1Min1), Im(SMin1Min1), Re(SMax1Min1), Im(SMax1Min1)
2.000000000000000000e+01,-3.690906566038401615e-01,2.171118449117873661e-01,-6.012165397360796915e-01,8.290521106002032847e-02
2.001200000000000045e+01,-3.601634482053413522e-01,2.272869187903787391e-01,-6.035176567107191081e-01,8.997876106955267350e-02
2.002400000000000091e+01,-3.510091046534227766e-01,2.371814878237612223e-01,-6.056567880982289820e-01,9.709944767221283246e-02
2.003600000000000136e+01,-3.416363128699373419e-01,2.467909795784413995e-01,-6.076336231349991346e-01,1.042629763672875132e-01
2.004799999999999827e+01,-3.320537731522471003e-01,2.561111287336040321e-01,-6.094479749900957311e-01,1.114651090763361801e-01
2.005999999999999872e+01,-3.222701864370789981e-01,2.651379695696330363e-01,-6.110997750252027405e-01,1.187016679436894151e-01
2.007199999999999918e+01,-3.122942422929182449e-01,2.738678279170697061e-01,-6.125890669663384136e-01,1.259685387307367122e-01
2.008399999999999963e+01,-3.021346076555150306e-01,2.822973126202465988e-01,-6.139160010121818001e-01,1.332616738084113905e-01
2.009600000000000009e+01,-2.917999163174420652e-01,2.904233065688291426e-01,-6.150808279026678260e-01,1.405770947535462112e-01
2.010800000000000054e+01,-2.812987591790679365e-01,2.982429573493937114e-01,-6.160838929703563727e-01,1.479108945560242971e-01
2.012000000000000099e+01,-2.706396752650408466e-01,3.057536675677944848e-01,-6.169256301958233601e-01,1.552592394447100677e-01
2.013200000000000145e+01,-2.598311435073587528e-01,3.129530848915120234e-01,-6.176065562870819425e-01,1.626183703410432890e-01
2.014399999999999835e+01,-2.488815752933136449e-01,3.198390918594779531e-01,-6.181272648017607230e-01,1.699846039499891548e-01
2.015599999999999881e+01,-2.377993077740726546e-01,3.264097955050466737e-01,-6.184884203294939153e-01,1.773543334986833753e-01
2.016799999999999926e+01,-2.265925979274490132e-01,3.326635168358038075e-01,-6.186907527507063964e-01,1.847240291335897344e-01
2.017999999999999972e+01,-2.152696173663102008e-01,3.385987802119682644e-01,-6.187350515867254819e-01,1.920902379874714072e-01
2.019200000000000017e+01,-2.038384478824250834e-01,3.442143026630034019e-01,-6.186221604549309028e-01,1.994495839276584082e-01
2.020400000000000063e+01,-1.923070777139853360e-01,3.495089831800118896e-01,-6.183529716414771782e-01,2.067987669973286591e-01
2.021600000000000108e+01,-1.806833985237977225e-01,3.544818920193691381e-01,-6.179284208029589553e-01,2.141345625615493631e-01
2.022800000000000153e+01,-1.689752030741159261e-01,3.591322600509765928e-01,-6.173494818073185231e-01,2.214538201697950626e-01
2.023999999999999844e+01,-1.571901835832817118e-01,3.634594681824532270e-01,-6.166171617232557578e-01,2.287534621465377171e-01
2.025199999999999889e+01,-1.453359307487389618e-01,3.674630368885999920e-01,-6.157324959664235431e-01,2.360304819212879490e-01
2.026399999999999935e+01,-1.334199334206840060e-01,3.711426158735072200e-01,-6.146965436097944213e-01,2.432819421091549361e-01
2.027599999999999980e+01,-1.214495789102959522e-01,3.744979738908594813e-01,-6.135103828647463509e-01,2.505049723526830974e-01
2.028800000000000026e+01,-1.094321539166369650e-01,3.775289887461983906e-01,-6.121751067386681511e-01,2.576967669352527301e-01
2.030000000000000071e+01,-9.737484605639207258e-02,3.802356375032766023e-01,-6.106918188741810027e-01,2.648545821758663821e-01
2.031200000000000117e+01,-8.528474598098244319e-02,3.826179869150861390e-01,-6.090616295745131525e-01,2.719757336146360616e-01
2.032400000000000162e+01,-7.316885006606836661e-02,3.846761840987557024e-01,-6.072856520190060836e-01,2.790575929976746861e-01
2.033599999999999852e+01,-6.103406365908076864e-02,3.864104474722436788e-01,-6.053649986723314003e-01,2.860975850695249290e-01
2.034799999999999898e+01,-4.888720487112734048e-02,3.878210579696350080e-01,-6.033007778906298579e-01,2.930931841805887172e-01
2.035999999999999943e+01,-3.673500890057152662e-02,3.889083505508952876e-01,-6.010940907275528211e-01,3.000419107163511123e-01
2.037199999999999989e+01,-2.458413287640123096e-02,3.896727060211512828e-01,-5.987460279429880350e-01,3.069413273545508192e-01
2.038400000000000034e+01,-1.244116121068912506e-02,3.901145431739372338e-01,-5.962576672172060777e-01,3.137890351556738011e-01
2.039600000000000080e+01,-3.126114504999613565e-04,3.902343112724117047e-01,-5.936300705731625271e-01,3.205826694914999941e-01
2.040800000000000125e+01,1.179505937917392326e-02,3.900324828823056866e-01,-5.908642820098080062e-01,3.273198958156737226e-01
2.042000000000000171e+01,2.387544794861321332e-02,3.895095470703005547e-01,-5.879613253494658798e-01,3.339984052795719749e-01
2.043199999999999861e+01,3.592219731856299836e-02,3.886660029816936812e-01,-5.849222023026442452e-01,3.406159101960185009e-01
2.044399999999999906e+01,4.792898916195374726e-02,3.875023538115616173e-01,-5.817478907540483135e-01,3.471701393527107937e-01
2.045599999999999952e+01,5.988953551524799773e-02,3.860191011842311615e-01,-5.784393432740901897e-01,3.536588331764908832e-01
2.046799999999999997e+01,7.179757006125475627e-02,3.842167399566618347e-01,-5.749974858607668216e-01,3.600797387489916290e-01
2.048000000000000043e+01,8.364683894374616568e-02,3.820957534624251917e-01,-5.714232169175494924e-01,3.664306046734833178e-01
2.049200000000000088e+01,9.543109111291783742e-02,3.796566092142495408e-01,-5.677174064737392500e-01,3.727091757921691673e-01
2.050400000000000134e+01,1.071440681993614252e-01,3.768997550846950872e-01,-5.638808956546996765e-01,3.789131877525888092e-01
2.051599999999999824e+01,1.187794939129160066e-01,3.738256159863641015e-01,-5.599144964104689759e-01,3.850403614212680181e-01
2.052799999999999869e+01,1.303310629615397342e-01,3.704345910751865589e-01,-5.558189915124527314e-01,3.910883971422722816e-01
2.053999999999999915e+01,1.417924294840917365e-01,3.667270515028130395e-01,-5.515951348292562617e-01,3.970549688378844366e-01
2.055199999999999960e+01,1.531571949899604157e-01,3.627033387468727721e-01,-5.472436518941714567e-01,4.029377179483204507e-01
2.056400000000000006e+01,1.644188957973842236e-01,3.583637635510258934e-01,-5.427652407784978594e-01,4.087342472070993327e-01
2.057600000000000051e+01,1.755709899615620628e-01,3.537086055102149906e-01,-5.381605732866492353e-01,4.144421142485060217e-01
2.058800000000000097e+01,1.866068436829759758e-01,3.487381133403957834e-01,-5.334302964909619638e-01,4.200588250435540183e-01
2.060000000000000142e+01,1.975197171859045253e-01,3.434525058763269190e-01,-5.285750346262474419e-01,4.255818271608851622e-01
2.061199999999999832e+01,2.083027500568922774e-01,3.378519738457331778e-01,-5.235953913664447290e-01,4.310085028492522397e-01
2.062399999999999878e+01,2.189489460330462378e-01,3.319366824733253618e-01,-5.184919525082423153e-01,4.363361619386130763e-01
2.063599999999999923e+01,2.294511572303729596e-01,3.257067749738953855e-01,-5.132652890892623887e-01,4.415620345573790795e-01
2.064799999999999969e+01,2.398020678032820874e-01,3.191623769998362392e-01,-5.079159609712946555e-01,4.466832636641800969e-01
2.066000000000000014e+01,2.499941770275259101e-01,3.123036021152626462e-01,-5.024445209222621056e-01,4.516968973934808451e-01
2.067200000000000060e+01,2.600197818007002892e-01,3.051305583761919626e-01,-4.968515192339594821e-01,4.565998812157005537e-01
2.068400000000000105e+01,2.698709585568010993e-01,2.976433561042117759e-01,-4.911375089162423602e-01,4.613890499140959611e-01
2.069600000000000151e+01,2.795395445944348634e-01,2.898421169496104843e-01,-4.853030515122294108e-01,4.660611193826739718e-01
2.070799999999999841e+01,2.890171188222050436e-01,2.817269843492170578e-01,-4.793487235832096238e-01,4.706126782517808804e-01
2.071999999999999886e+01,2.982949819296680238e-01,2.732981354940616225e-01,-4.732751239163373036e-01,4.750401793509389514e-01
2.073199999999999932e+01,3.073641359981408860e-01,2.645557949326605152e-01,-4.670828815128827416e-01,4.793399310218818821e-01
2.074399999999999977e+01,3.162152635729060246e-01,2.555002499469511967e-01,-4.607726644196504240e-01,4.835080882988600504e-01
2.075600000000000023e+01,3.248387062268767722e-01,2.461318678500278856e-01,-4.543451894713991801e-01,4.875406439779798595e-01
2.076800000000000068e+01,3.332244426560341255e-01,2.364511153674993538e-01,-4.478012330174306888e-01,4.914334196029337964e-01
2.078000000000000114e+01,3.413620663590153925e-01,2.264585802777019929e-01,-4.411416427111087835e-01,4.951820564009068448e-01
2.079200000000000159e+01,3.492407629673598968e-01,2.161549955000172107e-01,-4.343673504468151814e-01,4.987820062099278529e-01
2.080399999999999849e+01,3.568492873094784024e-01,2.055412658351011557e-01,-4.274793865347006894e-01,5.022285224475215859e-01
2.081599999999999895e+01,3.641759403106289983e-01,1.946184975758274149e-01,-4.204788952094900556e-01,5.055166511804306539e-01
2.082799999999999940e+01,3.712085458533911364e-01,1.833880312231129517e-01,-4.133671515755034109e-01,5.086412223664579235e-01
2.083999999999999986e+01,3.779344277488783654e-01,1.718514775561230667e-01,-4.061455800957101681e-01,5.115968413524456526e-01
2.085200000000000031e+01,3.843403869983173515e-01,1.600107573217586510e-01,-3.988157747381421148e-01,5.143778807270552589e-01
2.086400000000000077e+01,3.904126795584207388e-01,1.478681448231401740e-01,-3.913795208979341522e-01,5.169784726436926769e-01
2.087600000000000122e+01,3.961369948624473558e-01,1.354263157008769314e-01,-3.838388192176018232e-01,5.193925017477423189e-01
2.088800000000000168e+01,4.014984353925656335e-01,1.226883992136579005e-01,-3.761959114315769903e-01,5.216135988634558185e-01
2.089999999999999858e+01,4.064814976486617604e-01,1.096580353355677828e-01,-3.684533083632076655e-01,5.236351356196423668e-01
2.091199999999999903e+01,4.110700549145537286e-01,9.633943699575593655e-02,-3.606138202030216844e-01,5.254502202198697569e-01
2.092399999999999949e+01,4.152473422852698270e-01,8.273745779093089059e-02,-3.526805891956621419e-01,5.270516945924808017e-01
2.093599999999999994e+01,4.189959444892311646e-01,6.885766550126415364e-02,-3.446571248588576331e-01,5.284321331885424300e-01
2.094800000000000040e+01,4.222977871172024500e-01,5.470642173489454613e-02,-3.365473418507279324e-01,5.295838437319677627e-01
2.096000000000000085e+01,4.251341319563766152e-01,4.029096801338347827e-02,-3.283556005906833053e-01,5.304988702657611466e-01
2.097200000000000131e+01,4.274855772231993534e-01,2.561951858878955615e-02,-3.200867507234909648e-01,5.311689988815346819e-01
2.098400000000000176e+01,4.293320635927809770e-01,1.070136025035913797e-02,-3.117461774947495323e-01,5.315857665662742093e-01
2.099599999999999866e+01,4.306528870360411543e-01,-4.453040667081535099e-03,-3.033398510779587443e-01,5.317404736505716434e-01
2.100799999999999912e+01,4.314267195978928604e-01,-1.983192392279932437e-02,-2.948743788573576219e-01,5.316242003960248708e-01
2.101999999999999957e+01,4.316316393801873930e-01,-3.542211358826102136e-02,-2.863570606254619566e-01,5.312278283157202408e-01
2.103200000000000003e+01,4.312451711309561730e-01,-5.120888887712885668e-02,-2.777959465980369691e-01,5.305420668801024142e-01
2.104400000000000048e+01,4.302443389850166833e-01,-6.717584774930383806e-02,-2.691998980807655539e-01,5.295574863200874782e-01
2.105600000000000094e+01,4.286057330481854444e-01,-8.330476361012359443e-02,-2.605786505390519925e-01,5.282645572987628713e-01
2.106800000000000139e+01,4.263055916650301813e-01,-9.957543561894906248e-02,-2.519428787235815648e-01,5.266536982807776823e-01
2.107999999999999829e+01,4.233199013542326417e-01,-1.159655333534367755e-01,-2.433042633874641369e-01,5.247153314823218562e-01
2.109199999999999875e+01,4.196245165309850922e-01,-1.324504368514232144e-01,-2.346755589941589004e-01,5.224399483317941906e-01
2.110399999999999920e+01,4.151953012557028644e-01,-1.490030733760098203e-01,-2.260706616572110694e-01,5.198181854083800957e-01
2.111599999999999966e+01,4.100082953443305867e-01,-1.655937526258275672e-01,-2.175046763714279796e-01,5.168409118487063969e-01
2.112800000000000011e+01,4.040399072376427148e-01,-1.821900025446919202e-01,-2.089939823896136417e-01,5.134993292155768385e-01
2.114000000000000057e+01,3.972671360428390308e-01,-1.987564083762339839e-01,-2.005562953685305627e-01,5.097850848016217684e-01
2.115200000000000102e+01,3.896678251162130624e-01,-2.152544581604546592e-01,-1.922107246528274860e-01,5.056903992878030163e-01
2.116400000000000148e+01,3.812209494340452753e-01,-2.316423984797278957e-01,-1.839778237875474010e-01,5.012082095843588547e-01
2.117599999999999838e+01,3.719069387813419558e-01,-2.478751049278373753e-01,-1.758796320514146028e-01,4.963323275413913382e-01
2.118799999999999883e+01,3.617080384536836002e-01,-2.639039724897616068e-01,-1.679397044890087176e-01,4.910576150185791411e-01
2.119999999999999929e+01,3.506087086938162178e-01,-2.796768317698976047e-01,-1.601831275972327440e-01,4.853801755386033534e-01
2.121199999999999974e+01,3.385960634478465403e-01,-2.951378977748919108e-01,-1.526365174996490992e-01,4.792975624067684071e-01
2.122400000000000020e+01,3.256603482026604879e-01,-3.102277587191013541e-01,-1.453279971343685306e-01,4.728090027504450732e-01
2.123600000000000065e+01,3.117954556337078076e-01,-3.248834130442807000e-01,-1.382871487033825730e-01,4.659156364076710299e-01
2.124800000000000111e+01,2.969994765314744600e-01,-3.390383634890006270e-01,-1.315449374039287245e-01,4.586207679679559224e-01
2.126000000000000156e+01,2.812752819717860842e-01,-3.526227775574530821e-01,-1.251336023099195449e-01,4.509301295364347428e-01
2.127199999999999847e+01,2.646311309437842652e-01,-3.655637240618964112e-01,-1.190865102218711391e-01,4.428521509558325242e-01
2.128399999999999892e+01,2.470812956557307816e-01,-3.777854954793723463e-01,-1.134379683888945278e-01,4.343982332859094853e-01
2.129599999999999937e+01,2.286466945237889403e-01,-3.892100255949291210e-01,-1.082229922606606498e-01,4.255830203214407970e-01
2.130799999999999983e+01,2.093555204520896051e-01,-3.997574112193314488e-01,-1.034770248863576825e-01,4.164246618506121655e-01
2.132000000000000028e+01,1.892438494970641316e-01,-4.093465455858532609e-01,-9.923560527672239950e-02,4.069450612503072717e-01
2.133200000000000074e+01,1.683562124634091495e-01,-4.178958692702328670e-01,-9.553398401548433838e-02,3.971700989289868033e-01
2.134400000000000119e+01,1.467461095206516741e-01,-4.253242420725247830e-01,-9.240668567272565526e-02,3.871298221204627632e-01
2.135600000000000165e+01,1.244764457040802574e-01,-4.315519362021971173e-01,-8.988701914824334671e-02,3.768585906737941249e-01
2.136799999999999855e+01,1.016198633450989819e-01,-4.365017473005987636e-01,-8.800653895613044786e-02,3.663951678577208049e-01
2.137999999999999901e+01,7.825894625947710237e-02,-4.401002153406923245e-01,-8.679446263034139297e-02,3.557827448924787417e-01
2.139199999999999946e+01,5.448627011730037412e-02,-4.422789423362222250e-01,-8.627705183837354463e-02,3.450688880311459372e-01
2.140399999999999991e+01,3.040427403589071945e-02,-4.429759882049377762e-01,-8.647696736158849706e-02,3.343053976270752847e-01
2.141600000000000037e+01,6.124930272808801375e-03,-4.421373202627252863e-01,-8.741261073150091709e-02,3.235480698234468599e-01
2.142800000000000082e+01,-1.823080789092874215e-02,-4.397182859452989367e-01,-8.909746786718701628e-02,3.128563533437936917e-01
2.144000000000000128e+01,-4.253379529531069875e-02,-4.356850727923905486e-01,-9.153947237942021420e-02,3.022928963766627342e-01
2.145199999999999818e+01,-6.664773010112101659e-02,-4.300161148684868428e-01,-9.474040811263734208e-02,2.919229817198404908e-01
2.146399999999999864e+01,-9.043043646751941500e-02,-4.227034010471026337e-01,-9.869537179852815034e-02,2.818138521166454469e-01
2.147599999999999909e+01,-1.137353873116359049e-01,-4.137536383672411611e-01,-1.033923172131966800e-01,2.720339319600044714e-01
2.148799999999999955e+01,-1.364134500521909099e-01,-4.031892233616027887e-01,-1.088117018052315726e-01,2.626519560834408851e-01
2.150000000000000000e+01,-1.583148281028527171e-01,-3.910489761625162708e-01,-1.149262552782696623e-01,2.537360209737163919e-01
2.151200000000000045e+01,-1.792911608668377177e-01,-3.773885965036308243e-01,-1.217008870127347792e-01,2.453525781569378394e-01
2.152400000000000091e+01,-1.991977357191107578e-01,-3.622808074913636545e-01,-1.290927455165012949e-01,2.375653934337037532e-01
2.153600000000000136e+01,-2.178957576008780650e-01,-3.458151620789905456e-01,-1.370514384076127468e-01,2.304344987721867188e-01
2.154800000000000182e+01,-2.352546160179963541e-01,-3.280974982062483392e-01,-1.455194159455323322e-01,2.240151657388999851e-01
2.155999999999999872e+01,-2.511540859661697267e-01,-3.092490410527877764e-01,-1.544325151129018470e-01,2.183569301356262649e-01
2.157199999999999918e+01,-2.654863989895935861e-01,-2.894051641226495497e-01,-1.637206550438626840e-01,2.135026968761135624e-01
2.158399999999999963e+01,-2.781581234079548159e-01,-2.687138341484071047e-01,-1.733086685732716514e-01,2.094879520341001722e-01
2.159600000000000009e+01,-2.890917986842492238e-01,-2.473337772501945087e-01,-1.831172492275686681e-01,2.063401054901773668e-01
2.160800000000000054e+01,-2.982272776793296609e-01,-2.254324146065672663e-01,-1.930639884498094871e-01,2.040779828735459489e-01
2.162000000000000099e+01,-3.055227416542295460e-01,-2.031836243891305960e-01,-2.030644745467719836e-01,2.027114798077707669e-01
2.163200000000000145e+01,-3.109553656600088090e-01,-1.807653923449266953e-01,-2.130334229753699238e-01,2.022413851750019809e-01
2.164399999999999835e+01,-3.145216255954926265e-01,-1.583574158562514045e-01,-2.228858072526673784e-01,2.026593736037710092e-01
2.165599999999999881e+01,-3.162372518615826911e-01,-1.361387254835071670e-01,-2.325379609673280668e-01,2.039481610647037868e-01
2.166799999999999926e+01,-3.161368473655195577e-01,-1.142853840610442290e-01,-2.419086239679286710e-01,2.060818117047593934e-01
2.167999999999999972e+01,-3.142731988918132102e-01,-9.296831674420938385e-02,-2.509199095869218965e-01,2.090261791859608642e-01
2.169200000000000017e+01,-3.107163199711420742e-01,-7.235131654931147016e-02,-2.594981744368639043e-01,2.127394620607122033e-01
2.170400000000000063e+01,-3.055522699460261893e-01,-5.258925955311549716e-02,-2.675747775540541218e-01,2.171728502595375310e-01
2.171600000000000108e+01,-2.988817977593952735e-01,-3.382655274482493368e-02,-2.750867211172436377e-01,2.222712386365943149e-01
2.172800000000000153e+01,-2.908188600869373586e-01,-1.619582626044469703e-02,-2.819771703056743739e-01,2.279739836688891574e-01
2.173999999999999844e+01,-2.814890619814736650e-01,1.831289777922592821e-04,-2.881958547916838587e-01,2.342156807133089769e-01
2.175199999999999889e+01,-2.710280645237809760e-01,1.520418680549779841e-02,-2.936993586559923375e-01,2.409269415084165922e-01
2.176399999999999935e+01,-2.595799985030186052e-01,2.877549123742990933e-02,-2.984513090022271053e-01,2.480351546449443001e-01
2.177599999999999980e+01,-2.472959163567220453e-01,4.081986478866421464e-02,-3.024224761330197575e-01,2.554652152837610934e-01
2.178800000000000026e+01,-2.343323069718843132e-01,5.127504713434611477e-02,-3.055907997975044199e-01,2.631402142393213239e-01
2.180000000000000071e+01,-2.208496899475191899e-01,6.009379403339135811e-02,-3.079413567478301306e-01,2.709820804551756335e-01
2.181200000000000117e+01,-2.070112979602759529e-01,6.724386707720431122e-02,-3.094662847100025371e-01,2.789121746888592601e-01
2.182400000000000162e+01,-1.929818483108043103e-01,7.270794375845211766e-02,-3.101646769703886308e-01,2.868518357422994991e-01
2.183599999999999852e+01,-1.789263978454144477e-01,7.648347478109503161e-02,-3.100424602083128867e-01,2.947228837005538282e-01
2.184799999999999898e+01,-1.650092694676104643e-01,7.858251166790410080e-02,-3.091122660782384401e-01,3.024480872864489522e-01
2.185999999999999943e+01,-1.513930335456501186e-01,7.903152278851149903e-02,-3.073933044719440733e-01,3.099516045368991279e-01
2.187199999999999989e+01,-1.382375238118568328e-01,7.787121014813443154e-02,-3.049112434765181012e-01,3.171594075123652101e-01
