Frequency, Re(SMin1Min1), Im(SMin1Min1), Re(SMax1Min1), Im(SMax1Min1)
2.000000000000000000e+01,-4.515051133642872250e-01,1.307136112369848835e-01,-5.725889753224944201e-01,2.822074179626560958e-02
2.001200000000000045e+01,-4.449950574025113847e-01,1.428094758454230839e-01,-5.761617500613969156e-01,3.449500276039926816e-02
2.002400000000000091e+01,-4.382173812720513983e-01,1.546753801200228817e-01,-5.795869042318180231e-01,4.084105599883179616e-02
2.003600000000000136e+01,-4.311799496426573231e-01,1.663061421616703062e-01,-5.828638191322432771e-01,4.725480957201527721e-02
2.004799999999999827e+01,-4.238906491410401323e-01,1.776968745862557153e-01,-5.859919953874421772e-01,5.373222413991794733e-02
2.005999999999999872e+01,-4.163573765956299355e-01,1.888429779250047902e-01,-5.889710478925100912e-01,6.026931631363253994e-02
2.007199999999999918e+01,-4.085880278879098215e-01,1.997401336024564322e-01,-5.918007007066137248e-01,6.686216169075873128e-02
2.008399999999999963e+01,-4.005904874163073170e-01,2.103842965336038540e-01,-5.944807819130835114e-01,7.350689758002507124e-02
2.009600000000000009e+01,-3.923726181762604570e-01,2.207716873805265212e-01,-5.970112184615671280e-01,8.019972542127030979e-02
2.010800000000000054e+01,-3.839422524575732965e-01,2.308987845076216072e-01,-5.993920310070912638e-01,8.693691290758633061e-02
2.012000000000000099e+01,-3.753071831581906159e-01,2.407623156731940606e-01,-6.016233287599481727e-01,9.371479581697676753e-02
2.013200000000000145e+01,-3.664751557113907765e-01,2.503592494937178503e-01,-6.037053043594191593e-01,1.005297795613441653e-01
2.014399999999999835e+01,-3.574538606217005365e-01,2.596867867155558396e-01,-6.056382287834318756e-01,1.073783404610088726e-01
2.015599999999999881e+01,-3.482509266031628692e-01,2.687423513273624054e-01,-6.074224463053535805e-01,1.142570267533014050e-01
2.016799999999999926e+01,-3.388739143122103670e-01,2.775235815447283372e-01,-6.090583695082129045e-01,1.211624593439444286e-01
2.017999999999999972e+01,-3.293303106660276369e-01,2.860283206970604675e-01,-6.105464743658022275e-01,1.280913323101944001e-01
2.019200000000000017e+01,-3.196275237363007116e-01,2.942546080449218171e-01,-6.118872953992366970e-01,1.350404131647287564e-01
2.020400000000000063e+01,-3.097728782072339260e-01,3.022006695544626753e-01,-6.130814209167417816e-01,1.420065428893508286e-01
2.021600000000000108e+01,-2.997736113859791884e-01,3.098649086538712294e-01,-6.141294883436371199e-01,1.489866357475377046e-01
2.022800000000000153e+01,-2.896368697529719816e-01,3.172458969951421626e-01,-6.150321796487335790e-01,1.559776788847857809e-01
2.023999999999999844e+01,-2.793697060392121290e-01,3.243423652428381598e-01,-6.157902168726296921e-01,1.629767317255638448e-01
2.025199999999999889e+01,-2.689790768171452240e-01,3.311531939099539024e-01,-6.164043577627033033e-01,1.699809251755301509e-01
2.026399999999999935e+01,-2.584718405916640593e-01,3.376774042594120617e-01,-6.168753915189547632e-01,1.769874606373880999e-01
2.027599999999999980e+01,-2.478547563775554963e-01,3.439141492883093787e-01,-6.172041346542384010e-01,1.839936088485719101e-01
2.028800000000000026e+01,-2.371344827498521879e-01,3.498627048105349968e-01,-6.173914269718593362e-01,1.909967085485712313e-01
2.030000000000000071e+01,-2.263175773536321711e-01,3.555224606520533959e-01,-6.174381276629870019e-01,1.979941649834126849e-01
2.031200000000000117e+01,-2.154104968600786263e-01,3.608929119718539691e-01,-6.173451115258488109e-01,2.049834482544349856e-01
2.032400000000000162e+01,-2.044195973559390367e-01,3.659736507203310563e-01,-6.171132653082521680e-01,2.119620915180945031e-01
2.033599999999999852e+01,-1.933511351539830836e-01,3.707643572457235970e-01,-6.167434841745609297e-01,2.189276890431249567e-01
2.034799999999999898e+01,-1.822112680125358986e-01,3.752647920581930197e-01,-6.162366682979261157e-01,2.258778941309326493e-01
2.035999999999999943e+01,-1.710060567528452757e-01,3.794747877601039043e-01,-6.155937195782821281e-01,2.328104169046188443e-01
2.037199999999999989e+01,-1.597414672635789068e-01,3.833942411502287984e-01,-6.148155384863128736e-01,2.397230219715947297e-01
2.038400000000000034e+01,-1.484233728826300502e-01,3.870231055087502980e-01,-6.139030210334580628e-01,2.466135259642014133e-01
2.039600000000000080e+01,-1.370575571471194798e-01,3.903613830692594933e-01,-6.128570558677863822e-01,2.534797949622697444e-01
2.040800000000000125e+01,-1.256497169033717332e-01,3.934091176833020564e-01,-6.116785214955179351e-01,2.603197418010252950e-01
2.042000000000000171e+01,-1.142054657695607545e-01,3.961663876825379238e-01,-6.103682836278431223e-01,2.671313232672104521e-01
2.043199999999999861e+01,-1.027303379446963816e-01,3.986332989431302098e-01,-6.089271926527226597e-01,2.739125371857586422e-01
2.044399999999999906e+01,-9.122979235857615887e-02,4.008099781566934472e-01,-6.073560812313163471e-01,2.806614193988081207e-01
2.045599999999999952e+01,-7.970921715849049738e-02,4.026965663118703964e-01,-6.056557620188274260e-01,2.873760406382680488e-01
2.046799999999999997e+01,-6.817393452943930343e-02,4.042932123905727537e-01,-6.038270255096044314e-01,2.940545032926348279e-01
2.048000000000000043e+01,-5.662920584582818717e-02,4.056000672828659614e-01,-6.018706380065753647e-01,3.006949380681459005e-01
2.049200000000000088e+01,-4.508023715375596846e-02,4.066172779246201574e-01,-5.997873397152719832e-01,3.072955005438190446e-01
2.050400000000000134e+01,-3.353218498420178217e-02,4.073449816623082032e-01,-5.975778429630108635e-01,3.138543676193455423e-01
2.051599999999999824e+01,-2.199016249863603237e-02,4.077833008496851708e-01,-5.952428305441057610e-01,3.203697338542356721e-01
2.052799999999999869e+01,-1.045924596980828472e-02,4.079323376815652824e-01,-5.927829541924148904e-01,3.268398076960641885e-01
2.053999999999999915e+01,1.055518398170044760e-03,4.077921692705842038e-01,-5.901988331829467471e-01,3.332628075950419544e-01
2.055199999999999960e+01,1.254910730517389168e-02,4.073628429735779988e-01,-5.874910530647822204e-01,3.396369580016491696e-01
2.056400000000000006e+01,2.401651283915779561e-02,4.066443719751586250e-01,-5.846601645281794823e-01,3.459604852434323696e-01
2.057600000000000051e+01,3.545273460099986756e-02,4.056367311371511519e-01,-5.817066824093388711e-01,3.522316132765458407e-01
2.058800000000000097e+01,4.685277146081194555e-02,4.043398531238351912e-01,-5.786310848370976867e-01,3.584485593070607101e-01
2.060000000000000142e+01,5.821161293503154810e-02,4.027536248143588904e-01,-5.754338125265959780e-01,3.646095292765171303e-01
2.061199999999999832e+01,6.952423017231880442e-02,4.008778840153646716e-01,-5.721152682259024180e-01,3.707127132056746155e-01
2.062399999999999878e+01,8.078556653493472461e-02,3.987124164887016486e-01,-5.686758163225481555e-01,3.767562803898994450e-01
2.063599999999999923e+01,9.199052776090341221e-02,3.962569533111995890e-01,-5.651157826180693844e-01,3.827383744391177900e-01
2.064799999999999969e+01,1.031339716910708720e-01,3.935111685858001529e-01,-5.614354542798212222e-01,3.886571081548324536e-01
2.066000000000000014e+01,1.142106975438138688e-01,3.904746775259296254e-01,-5.576350799806928382e-01,3.945105582362274932e-01
2.067200000000000060e+01,1.252154347189515793e-01,3.871470349378984266e-01,-5.537148702388050570e-01,4.002967598069893662e-01
2.068400000000000105e+01,1.361428311112986289e-01,3.835277341292664399e-01,-5.496749979708512868e-01,4.060137007541381182e-01
2.069600000000000151e+01,1.469874409131660398e-01,3.796162062746797350e-01,-5.455155992745129856e-01,4.116593158698277355e-01
2.070799999999999841e+01,1.577437118841614749e-01,3.754118202745307942e-01,-5.412367744572768036e-01,4.172314807868634512e-01
2.071999999999999886e+01,1.684059720657986592e-01,3.709138831460910835e-01,-5.368385893310403389e-01,4.227280056985194268e-01
2.073199999999999932e+01,1.789684159176686551e-01,3.661216409914790915e-01,-5.323210767942216926e-01,4.281466288531503572e-01
2.074399999999999977e+01,1.894250898515011106e-01,3.610342805919501963e-01,-5.276842387254748745e-01,4.334850098141829755e-01
2.075600000000000023e+01,1.997698771390847006e-01,3.556509316836906631e-01,-5.229280482158759069e-01,4.387407224762123192e-01
2.076800000000000068e+01,2.099964821700426587e-01,3.499706699764558726e-01,-5.180524521693139484e-01,4.439112478282689067e-01
2.078000000000000114e+01,2.200984140357836460e-01,3.439925209831800612e-01,-5.130573743040166557e-01,4.489939664558571519e-01
2.079200000000000159e+01,2.300689694166648258e-01,3.377154647360368078e-01,-5.079427185915634801e-01,4.539861507740745039e-01
2.080399999999999849e+01,2.399012147505884818e-01,3.311384414724947156e-01,-5.027083731734597327e-01,4.588849569851132237e-01
2.081599999999999895e+01,2.495879676630238242e-01,3.242603583836214942e-01,-4.973542147993488260e-01,4.636874167547368475e-01
2.082799999999999940e+01,2.591217776407779838e-01,3.170800975264297383e-01,-4.918801138353079971e-01,4.683904286039013987e-01
2.083999999999999986e+01,2.684949059351075529e-01,3.095965250122648116e-01,-4.862859398952686374e-01,4.729907490137632564e-01
2.085200000000000031e+01,2.776993046837289980e-01,3.018085015944135807e-01,-4.805715681536659178e-01,4.774849832447451980e-01
2.086400000000000077e+01,2.867265952464464474e-01,2.937148947900533602e-01,-4.747368864027383117e-01,4.818695758733560486e-01
2.087600000000000122e+01,2.955680457554286655e-01,2.853145926845521707e-01,-4.687818029236231476e-01,4.861408010540804736e-01
2.088800000000000168e+01,3.042145478889041188e-01,2.766065195799337073e-01,-4.627062552464609180e-01,4.902947525179737198e-01
2.089999999999999858e+01,3.126565928864041277e-01,2.675896536640671730e-01,-4.565102198811542000e-01,4.943273333247212853e-01
2.091199999999999903e+01,3.208842468349503152e-01,2.582630468927910039e-01,-4.501937231071789225e-01,4.982342453909932578e-01
2.092399999999999949e+01,3.288871252689291036e-01,2.486258472938323028e-01,-4.437568529179728438e-01,5.020109788249912386e-01
2.093599999999999994e+01,3.366543671423649076e-01,2.386773239187476858e-01,-4.371997722227337624e-01,5.056528011054397531e-01
2.094800000000000040e+01,3.441746082509089533e-01,2.284168946874497452e-01,-4.305227334161158548e-01,5.091547461528836971e-01
2.096000000000000085e+01,3.514359542028383521e-01,2.178441573887634208e-01,-4.237260944340363600e-01,5.125116033523762216e-01
2.097200000000000131e+01,3.584259530639000713e-01,2.069589241199181195e-01,-4.168103364216255713e-01,5.157179065995577405e-01
2.098400000000000176e+01,3.651315678305287471e-01,1.957612594676243767e-01,-4.097760831471007892e-01,5.187679234569781972e-01
2.099599999999999866e+01,3.715391489202965469e-01,1.842515227531334732e-01,-4.026241223028694804e-01,5.216556445245654761e-01
2.100799999999999912e+01,3.776344069080151966e-01,1.724304146830441253e-01,-3.953554288422347351e-01,5.243747731475676410e-01
2.101999999999999957e+01,3.834023857812230429e-01,1.602990287662186542e-01,-3.879711905065324484e-01,5.269187156074208733e-01
2.103200000000000003e+01,3.888274370406740177e-01,1.478589078741473495e-01,-3.804728357028555052e-01,5.292805719660621522e-01
2.104400000000000048e+01,3.938931950303292129e-01,1.351121063371178432e-01,-3.728620638966360645e-01,5.314531277624795491e-01
2.105600000000000094e+01,3.985825539481592239e-01,1.220612579802773101e-01,-3.651408786855033228e-01,5.334288467920691446e-01
2.106800000000000139e+01,4.028776470643488650e-01,1.087096505113008399e-01,-3.573116237206643842e-01,5.351998652349333474e-01
2.107999999999999829e+01,4.067598287579802796e-01,9.506130667343266893e-02,-3.493770216388273342e-01,5.367579874388053174e-01
2.109199999999999875e+01,4.102096600776080626e-01,8.112107257258677206e-02,-3.413402161606184926e-01,5.380946837061207910e-01
2.110399999999999920e+01,4.132068986358067297e-01,6.689471357319516642e-02,-3.332048174997391810e-01,5.392010904829240836e-01
2.111599999999999966e+01,4.157304937633089503e-01,5.238901813207696989e-02,-3.249749512094846082e-01,5.400680134000355181e-01
2.112800000000000011e+01,4.177585879748082487e-01,3.761190990067390244e-02,-3.166553105688152403e-01,5.406859336740187372e-01
2.114000000000000057e+01,4.192685259360007799e-01,2.257256837011587663e-02,-3.082512125772485234e-01,5.410450184369419713e-01
2.115200000000000102e+01,4.202368722694390657e-01,7.281558257699197526e-03,-2.997686575850712076e-01,5.411351356293040427e-01
2.116400000000000148e+01,4.206394396944517222e-01,-8.249032266464692217e-03,-2.912143925309338410e-01,5.409458741591819386e-01
2.117599999999999838e+01,4.204513291622122284e-01,-2.400544454184019849e-02,-2.825959776909234833e-01,5.404665701017751234e-01
2.118799999999999883e+01,4.196469838187595891e-01,-3.997209375891378619e-02,-2.739218567595866349e-01,5.396863397857557532e-01
2.119999999999999929e+01,4.182002588031631940e-01,-5.613140506820364639e-02,-2.652014299820719123e-01,5.385941206844534479e-01
2.121199999999999974e+01,4.160845090607008245e-01,-7.246364208721470246e-02,-2.564451299350217206e-01,5.371787210985733418e-01
2.122400000000000020e+01,4.132726975161368221e-01,-8.894672872583309076e-02,-2.476644994102143171e-01,5.354288796799471228e-01
2.123600000000000065e+01,4.097375261025815174e-01,-1.055560655949984439e-01,-2.388722706866817924e-01,5.333333358990171025e-01
2.124800000000000111e+01,4.054515922677008333e-01,-1.222643426667591599e-01,-2.300824452824744015e-01,5.308809125977688170e-01
2.126000000000000156e+01,4.003875736699326615e-01,-1.390413503205886747e-01,-2.213103730547617276e-01,5.280606117891959439e-01
2.127199999999999847e+01,3.945184438191115528e-01,-1.558537914443293981e-01,-2.125728292657665386e-01,5.248617248574789507e-01
2.128399999999999892e+01,3.878177213923732491e-01,-1.726650978599291730e-01,-2.038880879521714207e-01,5.212739582723134868e-01
2.129599999999999937e+01,3.802597558486945362e-01,-1.894352550131326862e-01,-1.952759896285528596e-01,5.172875758475400376e-01
2.130799999999999983e+01,3.718200517525607207e-01,-2.061206395987020545e-01,-1.867580010239110466e-01,5.128935584386123958e-01
2.132000000000000028e+01,3.624756338757023633e-01,-2.226738755793993829e-01,-1.783572641999251474e-01,5.080837817750724072e-01
2.133200000000000074e+01,3.522054546501443006e-01,-2.390437148846238924e-01,-1.700986320375917071e-01,5.028512128518098923e-01
2.134400000000000119e+01,3.409908448697545613e-01,-2.551749499223308071e-01,-1.620086867164816091e-01,4.971901249453255511e-01
2.135600000000000165e+01,3.288160076550157296e-01,-2.710083658776591409e-01,-1.541157374623504661e-01,4.910963308676465910e-01
2.136799999999999855e+01,3.156685545826475869e-01,-2.864807415663794266e-01,-1.464497935227819791e-01,4.845674335115620068e-01
2.137999999999999901e+01,3.015400815178750915e-01,-3.015249083140915110e-01,-1.390425080698065030e-01,4.776030920693112858e-01
2.139199999999999946e+01,2.864267800593464641e-01,-3.160698768857231333e-01,-1.319270885503828761e-01,4.702053015195025720e-01
2.140399999999999991e+01,2.703300786114412602e-01,-3.300410428274221930e-01,-1.251381689416990184e-01,4.623786820754691163e-01
2.141600000000000037e+01,2.532573049470447368e-01,-3.433604806271770560e-01,-1.187116394539118602e-01,4.541307742815177129e-01
2.142800000000000082e+01,2.352223597438954372e-01,-3.559473367682156608e-01,-1.126844294957012882e-01,4.454723343488227738e-01
2.144000000000000128e+01,2.162463880203023547e-01,-3.677183309521745436e-01,-1.070942402164853369e-01,4.364176231681820561e-01
2.145199999999999818e+01,1.963584327377807803e-01,-3.785883734207480256e-01,-1.019792236999748219e-01,4.269846812625053833e-01
2.146399999999999864e+01,1.755960521844482092e-01,-3.884713043259323539e-01,-9.737760693856750693e-02,4.171955808008186439e-01
2.147599999999999909e+01,1.540058802399205673e-01,-3.972807584271839110e-01,-9.332726008958301678e-02,4.070766447544459377e-01
2.148799999999999955e+01,1.316441064151160356e-01,-4.049311549922048337e-01,-8.986521021136861798e-02,3.966586224137414463e-01
2.150000000000000000e+01,1.085768508512813951e-01,-4.113388086464085935e-01,-8.702710369051913641e-02,3.859768098901827371e-01
2.151200000000000045e+01,8.488040846154518149e-02,-4.164231521028967653e-01,-8.484662286775850049e-02,3.750711039993292473e-01
2.152400000000000091e+01,6.064133632380259292e-02,-4.201080563160448644e-01,-8.335486488914882475e-02,3.639859781518640647e-01
2.153600000000000136e+01,3.595635949518159735e-02,-4.223232278097618364e-01,-8.257969346044456704e-02,3.527703696618619822e-01
2.154800000000000182e+01,1.093207279739544409e-02,-4.230056569776453612e-01,-8.254507684386490352e-02,3.414774692864591676e-01
2.155999999999999872e+01,-1.431558004991724704e-02,-4.221010853450890554e-01,-8.327042795781319784e-02,3.301644058851521124e-01
2.157199999999999918e+01,-3.966206323741856832e-02,-4.195654544887913451e-01,-8.476996464750827243e-02,3.188918218384472203e-01
2.158399999999999963e+01,-6.497524810591848166e-02,-4.153662949320139353e-01,-8.705210990102399404e-02,3.077233382560614072e-01
2.159600000000000009e+01,-9.011665319703637822e-02,-4.094840102917723934e-01,-9.011895280362443306e-02,2.967249129414331055e-01
2.160800000000000054e+01,-1.149429143495332706e-01,-4.019130106425550242e-01,-9.396579118262295138e-02,2.859640984125872976e-01
2.162000000000000099e+01,-1.393074643021133263e-01,-3.926626498145929234e-01,-9.858077605911466645e-02,2.755092118044070726e-01
2.163200000000000145e+01,-1.630623913719102258e-01,-3.817579243954034030e-01,-1.039446761087695209e-01,2.654284329434377643e-01
2.164399999999999835e+01,-1.860604373635568742e-01,-3.692398976438584501e-01,-1.100307773276505557e-01,2.557888510112737435e-01
2.165599999999999881e+01,-2.081570865611605536e-01,-3.551658192800893343e-01,-1.168049290677580648e-01,2.466554837038766879e-01
2.166799999999999926e+01,-2.292126910863664102e-01,-3.396089219219396993e-01,-1.242257427029307554e-01,2.380902953745360484e-01
2.167999999999999972e+01,-2.490945736219415396e-01,-3.226578863571601397e-01,-1.322449436426110514e-01,2.301512420817441729e-01
2.169200000000000017e+01,-2.676790469246173032e-01,-3.044159802693524042e-01,-1.408078715301971373e-01,2.228913715824641373e-01
2.170400000000000063e+01,-2.848532909308248984e-01,-2.849998877554402177e-01,-1.498541175923029933e-01,2.163580050360877360e-01
2.171600000000000108e+01,-3.005170326296345285e-01,-2.645382592044788761e-01,-1.593182826105194738e-01,2.105920245368946286e-01
2.172800000000000153e+01,-3.145839810502727985e-01,-2.431700220801863710e-01,-1.691308342191428227e-01,2.056272866991084303e-01
2.173999999999999844e+01,-3.269829792836661531e-01,-2.210425021682838886e-01,-1.792190384950828330e-01,2.014901776013079127e-01
2.175199999999999889e+01,-3.376588468433310286e-01,-1.983094113603856012e-01,-1.895079383295183717e-01,1.981993187565439518e-01
2.176399999999999935e+01,-3.465728981552714805e-01,-1.751287616844032780e-01,-1.999213499896737856e-01,1.957654277629132522e-01
2.177599999999999980e+01,-3.537031357696731049e-01,-1.516607659102321981e-01,-2.103828496233778322e-01,1.941913312777557299e-01
2.178800000000000026e+01,-3.590441292336723489e-01,-1.280657827371400881e-01,-2.208167231541225961e-01,1.934721223050658023e-01
2.180000000000000071e+01,-3.626066017513981388e-01,-1.045023595886797468e-01,-2.311488558933764703e-01,1.935954488042783972e-01
2.181200000000000117e+01,-3.644167562076893185e-01,-8.112541885546471765e-02,-2.413075420199255472e-01,1.945419165661939342e-01
2.182400000000000162e+01,-3.645153794337382958e-01,-5.808462460625360424e-02,-2.512241985564923064e-01,1.962855863223725295e-01
2.183599999999999852e+01,-3.629567685181758763e-01,-3.552295696401839425e-02,-2.608339733064085619e-01,1.987945432331382489e-01
2.184799999999999898e+01,-3.598075254701968428e-01,-1.357551114852806329e-02,-2.700762411003982955e-01,2.020315162263917330e-01
2.185999999999999943e+01,-3.551452667407106190e-01,7.631471795638992105e-03,-2.788949873791534140e-01,2.059545250505317449e-01
2.187199999999999989e+01,-3.490572922544091239e-01,2.798134484215470882e-02,-2.872390823831537099e-01,2.105175342182308285e-01
