Frequency, Re(SMin1Min1), Im(SMin1Min1), Re(SMax1Min1), Im(SMax1Min1)
2.000000000000000000e+01,-4.804219496946294798e-01,6.575887704177500737e-02,-5.457276618631523579e-01,3.069156083645741342e-03
2.001200000000000045e+01,-4.752218076038070005e-01,7.902369100802283941e-02,-5.500682879643846723e-01,8.937903057493352607e-03
2.002400000000000091e+01,-4.697032360807978923e-01,9.208735846602363051e-02,-5.542648918139330139e-01,1.490749842793732266e-02
2.003600000000000136e+01,-4.638738643494122460e-01,1.049423519072059385e-01,-5.583157211187952385e-01,2.097342384740799245e-02
2.004799999999999827e+01,-4.577414478745118753e-01,1.175814845420963262e-01,-5.622191916485814733e-01,2.713117773025606680e-02
2.005999999999999872e+01,-4.513138510992845687e-01,1.299979074608792751e-01,-5.659738823448374756e-01,3.337628222857582511e-02
2.007199999999999918e+01,-4.445990307612089909e-01,1.421851059199877865e-01,-5.695785301635249986e-01,3.970428976971629442e-02
2.008399999999999963e+01,-4.376050198232659394e-01,1.541368948114978932e-01,-5.730320246837041775e-01,4.611078915168592696e-02
2.009600000000000009e+01,-4.303399120521154142e-01,1.658474133724135990e-01,-5.763334025145264716e-01,5.259141119488838084e-02
2.010800000000000054e+01,-4.228118472701976605e-01,1.773111191910612394e-01,-5.794818415315626803e-01,5.914183395083191797e-02
2.012000000000000099e+01,-4.150289973042005642e-01,1.885227815674770657e-01,-5.824766549723322528e-01,6.575778747038300842e-02
2.013200000000000145e+01,-4.069995526479877612e-01,1.994774742840484116e-01,-5.853172854195788366e-01,7.243505813596558263e-02
2.014399999999999835e+01,-3.987317098540129057e-01,2.101705678417368495e-01,-5.880032986994925270e-01,7.916949256370706123e-02
2.015599999999999881e+01,-3.902336596633484977e-01,2.205977212160382950e-01,-5.905343777206158995e-01,8.595700108301350395e-02
2.016799999999999926e+01,-3.815135758809361510e-01,2.307548731853547030e-01,-5.929103162777086267e-01,9.279356080226672243e-02
2.017999999999999972e+01,-3.725796049992334824e-01,2.406382332829184456e-01,-5.951310128433218161e-01,9.967521827055426942e-02
2.019200000000000017e+01,-3.634398565704488604e-01,2.502442724215196979e-01,-5.971964643682994289e-01,1.065980917461753219e-01
2.020400000000000063e+01,-3.541023943247214589e-01,2.595697132383986694e-01,-5.991067601108929219e-01,1.135583730835394711e-01
2.021600000000000108e+01,-3.445752280291015102e-01,2.686115202055732176e-01,-6.008620755126534707e-01,1.205523292506585353e-01
2.022800000000000153e+01,-3.348663060799143554e-01,2.773668895487623742e-01,-6.024626661377542325e-01,1.275763034899679849e-01
2.023999999999999844e+01,-3.249835088191113108e-01,2.858332390157977687e-01,-6.039088616909411567e-01,1.346267161355305664e-01
2.025199999999999889e+01,-3.149346425634844127e-01,2.940081975332219377e-01,-6.052010601278543511e-01,1.417000650999519218e-01
2.026399999999999935e+01,-3.047274343341715985e-01,3.018895947874198349e-01,-6.063397218700926627e-01,1.487929260443878743e-01
2.027599999999999980e+01,-2.943695272725657119e-01,3.094754507644414954e-01,-6.073253641360799593e-01,1.559019522450952044e-01
2.028800000000000026e+01,-2.838684767278454868e-01,3.167639652803381223e-01,-6.081585553974852010e-01,1.630238741698104565e-01
2.030000000000000071e+01,-2.732317470004994586e-01,3.237535075316553268e-01,-6.088399099697927586e-01,1.701554987770747263e-01
2.031200000000000117e+01,-2.624667087256836173e-01,3.304426056935355627e-01,-6.093700827444475943e-01,1.772937085513383582e-01
2.032400000000000162e+01,-2.515806368798887416e-01,3.368299365907852505e-01,-6.097497640689732989e-01,1.844354602862983972e-01
2.033599999999999852e+01,-2.405807093942279595e-01,3.429143154652102288e-01,-6.099796747804498986e-01,1.915777836285167679e-01
2.034799999999999898e+01,-2.294740063576485301e-01,3.486946858606126964e-01,-6.100605613968682617e-01,1.987177793928556480e-01
2.035999999999999943e+01,-2.182675097936187802e-01,3.541701096449365593e-01,-6.099931914700086333e-01,2.058526176606882141e-01
2.037199999999999989e+01,-2.069681039940612366e-01,3.593397571873850338e-01,-6.097783491027873870e-01,2.129795356713178600e-01
2.038400000000000034e+01,-1.955825763949023133e-01,3.642028977066306128e-01,-6.094168306333292984e-01,2.200958355163106783e-01
2.039600000000000080e+01,-1.841176189781655037e-01,3.687588898047814978e-01,-6.089094404874391131e-01,2.271988816458098692e-01
2.040800000000000125e+01,-1.725798301862830619e-01,3.730071722003627244e-01,-6.082569872006526879e-01,2.342860981951923327e-01
2.042000000000000171e+01,-1.609757173351713810e-01,3.769472546723295903e-01,-6.074602796106230995e-01,2.413549661396579282e-01
2.043199999999999861e+01,-1.493116995135767011e-01,3.805787092260229376e-01,-6.065201232202593884e-01,2.484030202836062240e-01
2.044399999999999906e+01,-1.375941109572254573e-01,3.839011614910020631e-01,-6.054373167317664839e-01,2.554278460908772641e-01
2.045599999999999952e+01,-1.258292048875431779e-01,3.869142823598593628e-01,-6.042126487515703248e-01,2.624270763610894730e-01
2.046799999999999997e+01,-1.140231578058030215e-01,3.896177798764722255e-01,-6.028468946660076044e-01,2.693983877565876983e-01
2.048000000000000043e+01,-1.021820742349918987e-01,3.920113913816044571e-01,-6.013408136876299270e-01,2.763394971836184988e-01
2.049200000000000088e+01,-9.031199190296525237e-02,3.940948759234222942e-01,-5.996951460720566507e-01,2.832481580305800106e-01
2.050400000000000134e+01,-7.841888736191918174e-02,3.958680069402953361e-01,-5.979106105054381448e-01,2.901221562653529262e-01
2.051599999999999824e+01,-6.650868204067153511e-02,3.973305652232232976e-01,-5.959879016628230053e-01,2.969593063929065191e-01
2.052799999999999869e+01,-5.458724872775169018e-02,3.984823321653853667e-01,-5.939276879380275265e-01,3.037574472735672382e-01
2.053999999999999915e+01,-4.266041848492328065e-02,3.993230833066241381e-01,-5.917306093460238392e-01,3.105144378014709772e-01
2.055199999999999960e+01,-3.073398799224622696e-02,3.998525821812166092e-01,-5.893972755992997747e-01,3.172281524420107468e-01
2.056400000000000006e+01,-1.881372732752276469e-02,4.000705744779793904e-01,-5.869282643602774518e-01,3.238964766261882011e-01
2.057600000000000051e+01,-6.905388184552919972e-03,3.999767825226900331e-01,-5.843241196724876518e-01,3.305173019990721439e-01
2.058800000000000097e+01,4.985287463695700465e-03,3.995709000939325906e-01,-5.815853505740069540e-01,3.370885215187555128e-01
2.060000000000000142e+01,1.685255824922065465e-02,3.988525875848548674e-01,-5.787124298975019343e-01,3.436080244014562690e-01
2.061199999999999832e+01,2.869067383097278004e-02,3.978214675249084342e-01,-5.757057932622211549e-01,3.500736909076903047e-01
2.062399999999999878e+01,4.049386484359496219e-02,3.964771204775318081e-01,-5.725658382643563638e-01,3.564833869637270003e-01
2.063599999999999923e+01,5.225633236009941118e-02,3.948190813318490644e-01,-5.692929238734036890e-01,3.628349586118326808e-01
2.064799999999999969e+01,6.397223685414676897e-02,3.928468360088951949e-01,-5.658873700435137488e-01,3.691262262822319618e-01
2.066000000000000014e+01,7.563568664592069946e-02,3.905598186056102872e-01,-5.623494575502718806e-01,3.753549788790340735e-01
2.067200000000000060e+01,8.724072581409503258e-02,3.879574090029248024e-01,-5.586794280650082545e-01,3.815189676718737100e-01
2.068400000000000105e+01,9.878132155494914746e-02,3.850389309676708893e-01,-5.548774844804930106e-01,3.876158999845059072e-01
2.069600000000000151e+01,1.102513509683016313e-01,3.818036507819049241e-01,-5.509437915038682965e-01,3.936434326711361065e-01
2.070799999999999841e+01,1.216445872487050411e-01,3.782507764374301029e-01,-5.468784765347629584e-01,3.995991653709710656e-01
2.071999999999999886e+01,1.329546852592622119e-01,3.743794574379985529e-01,-5.426816308489089691e-01,4.054806335311804677e-01
2.073199999999999932e+01,1.441751664644339292e-01,3.701887852568696013e-01,-5.383533111101296287e-01,4.112853011883261245e-01
2.074399999999999977e+01,1.552994031976396294e-01,3.656777945030378341e-01,-5.338935412363166044e-01,4.170105534983206130e-01
2.075600000000000023e+01,1.663206022388962479e-01,3.608454648557443134e-01,-5.293023146480724250e-01,4.226536890051114104e-01
2.076800000000000068e+01,1.772317876776928480e-01,3.556907238337131960e-01,-5.245795969319591023e-01,4.282119116386052804e-01
2.078000000000000114e+01,1.880257830365594240e-01,3.502124504730649845e-01,-5.197253289538631416e-01,4.336823224329057758e-01
2.079200000000000159e+01,1.986951926314972916e-01,3.444094799960635278e-01,-5.147394304618567729e-01,4.390619109567006073e-01
2.080399999999999849e+01,2.092323821467076128e-01,3.382806095617940101e-01,-5.096218042221104527e-01,4.443475464487422477e-01
2.081599999999999895e+01,2.196294584029780395e-01,3.318246051995774049e-01,-5.043723407359124167e-01,4.495359686527726217e-01
2.082799999999999940e+01,2.298782483016485467e-01,3.250402100365756275e-01,-4.989909235907651897e-01,4.546237783480167605e-01
2.083999999999999986e+01,2.399702769297401561e-01,3.179261539424076410e-01,-4.934774355036920523e-01,4.596074275737210835e-01
2.085200000000000031e+01,2.498967448162522920e-01,3.104811647260463103e-01,-4.878317651205683059e-01,4.644832095489276891e-01
2.086400000000000077e+01,2.596485043354525013e-01,3.027039810336560333e-01,-4.820538146412713387e-01,4.692472482921120069e-01
2.087600000000000122e+01,2.692160352601113971e-01,2.945933671103314611e-01,-4.761435083468400498e-01,4.738954879494450267e-01
2.088800000000000168e+01,2.785894194763957610e-01,2.861481296041730182e-01,-4.701008021116693802e-01,4.784236818453150852e-01
2.089999999999999858e+01,2.877583148827237425e-01,2.773671366075303180e-01,-4.639256939909321420e-01,4.828273812746199933e-01
2.091199999999999903e+01,2.967119285077370328e-01,2.682493391477361877e-01,-4.576182359809999878e-01,4.871019240632372682e-01
2.092399999999999949e+01,3.054389888976568601e-01,2.587937953581530004e-01,-4.511785470585639168e-01,4.912424229311778689e-01
2.093599999999999994e+01,3.139277178415255110e-01,2.489996975797402479e-01,-4.446068276123297802e-01,4.952437537024470537e-01
2.094800000000000040e+01,3.221658015240132511e-01,2.388664026636618809e-01,-4.379033753896479086e-01,4.991005434166464472e-01
2.096000000000000085e+01,3.301403612205361382e-01,2.283934657664303536e-01,-4.310686030889792075e-01,5.028071584101923008e-01
2.097200000000000131e+01,3.378379236785755690e-01,2.175806779505841948e-01,-4.241030577377904454e-01,5.063576924497986687e-01
2.098400000000000176e+01,3.452443913629846817e-01,2.064281079256413964e-01,-4.170074420038590857e-01,5.097459550178952137e-01
2.099599999999999866e+01,3.523450127822962963e-01,1.949361482857420724e-01,-4.097826375962611012e-01,5.129654598691676393e-01
2.100799999999999912e+01,3.591243531581982951e-01,1.831055666214336519e-01,-4.024297309198157091e-01,5.160094139996959095e-01
2.101999999999999957e+01,3.655662657521625558e-01,1.709375619031374971e-01,-3.949500411536195355e-01,5.188707071954357097e-01
2.103200000000000003e+01,3.716538642224394007e-01,1.584338265517973854e-01,-3.873451509296892969e-01,5.215419023556058242e-01
2.104400000000000048e+01,3.773694964519407336e-01,1.455966146277885565e-01,-3.796169397916608346e-01,5.240152268188170703e-01
2.105600000000000094e+01,3.826947203637895978e-01,1.324288165806443429e-01,-3.717676206150078988e-01,5.262825649562107300e-01
2.106800000000000139e+01,3.876102823272464803e-01,1.189340410086782013e-01,-3.637997791689198124e-01,5.283354523365102473e-01
2.107999999999999829e+01,3.920960988530893254e-01,1.051167038773372642e-01,-3.557164169950085553e-01,5.301650718130921369e-01
2.109199999999999875e+01,3.961312423849783215e-01,9.098212563624970273e-02,-3.475209977683876295e-01,5.317622519331568487e-01
2.110399999999999920e+01,3.996939321124451383e-01,7.653663665540647032e-02,-3.392174972914526188e-01,5.331174681239860824e-01
2.111599999999999966e+01,4.027615308623597734e-01,6.178769136767364722e-02,-3.308104572484342754e-01,5.342208471711414886e-01
2.112800000000000011e+01,4.053105492690504130e-01,4.674399145547850770e-02,-3.223050428183555915e-01,5.350621755682060110e-01
2.114000000000000057e+01,4.073166585786411331e-01,3.141561835000456632e-02,-3.137071042035141089e-01,5.356309123870509614e-01
2.115200000000000102e+01,4.087547136098361178e-01,1.581417521793527722e-02,-3.050232420783375864e-01,5.359162073910658242e-01
2.116400000000000148e+01,4.095987875701500025e-01,-4.706151080789515700e-05,-2.962608768974293594e-01,5.359069251905447251e-01
2.117599999999999838e+01,4.098222206114056632e-01,-1.615298117572793596e-02,-2.874283219195236105e-01,5.355916763182584361e-01
2.118799999999999883e+01,4.093976841982466808e-01,-3.248646877366044572e-02,-2.785348597036332308e-01,5.349588561825112665e-01
2.119999999999999929e+01,4.082972635543379303e-01,-4.902822623442087274e-02,-2.695908217123957340e-01,5.339966929324246880e-01
2.121199999999999974e+01,4.064925606372948863e-01,-6.575658590492487743e-02,-2.606076705128601012e-01,5.326933053429583342e-01
2.122400000000000020e+01,4.039548202680284805e-01,-8.264731740680865413e-02,-2.515980838944603670e-01,5.310367718915047774e-01
2.123600000000000065e+01,4.006550821939472429e-01,-9.967342943944136613e-02,-2.425760400251281701e-01,5.290152122492580711e-01
2.124800000000000111e+01,3.965643619869734793e-01,-1.168049685745766730e-01,-2.335569025376736108e-01,5.266168824432745366e-01
2.126000000000000156e+01,3.916538637527285927e-01,-1.340088176353237959e-01,-2.245575041782671144e-01,5.238302849525352523e-01
2.127199999999999847e+01,3.858952276399885140e-01,-1.512484968733061041e-01,-2.155962273566926768e-01,5.206442949754113148e-01
2.128399999999999892e+01,3.792608150701348713e-01,-1.684839718543655329e-01,-2.066930796147529725e-01,5.170483040376253614e-01
2.129599999999999937e+01,3.717240344326596113e-01,-1.856714727319882519e-01,-1.978697616773531232e-01,5.130323819887562253e-01
2.130799999999999983e+01,3.632597096896492683e-01,-2.027633304221991561e-01,-1.891497253747351226e-01,5.085874582501210828e-01
2.132000000000000028e+01,3.538444938725300859e-01,-2.197078360808958630e-01,-1.805582183316889466e-01,5.037055229154636660e-01
2.133200000000000074e+01,3.434573288091267163e-01,-2.364491312059106565e-01,-1.721223119205092522e-01,4.983798479555126559e-01
2.134400000000000119e+01,3.320799515591233986e-01,-2.529271366138119981e-01,-1.638709085835626800e-01,4.926052283260428100e-01
2.135600000000000165e+01,3.196974469331663737e-01,-2.690775294390905237e-01,-1.558347242671805910e-01,4.863782422150861873e-01
2.136799999999999855e+01,3.062988441004598772e-01,-2.848317781237109658e-01,-1.480462413946615763e-01,4.796975289794347952e-01
2.137999999999999901e+01,2.918777536331907951e-01,-3.001172460495570293e-01,-1.405396275709157594e-01,4.725640825077974672e-01
2.139199999999999946e+01,2.764330393848655198e-01,-3.148573749448737580e-01,-1.333506150881201002e-01,4.649815568076023364e-01
2.140399999999999991e+01,2.599695173580853780e-01,-3.289719593877644677e-01,-1.265163363283410558e-01,4.569565795507750106e-01
2.141600000000000037e+01,2.424986712090073659e-01,-3.423775235443181630e-01,-1.200751103768126493e-01,4.484990681467703744e-01
2.142800000000000082e+01,2.240393713061029357e-01,-3.549878106203067096e-01,-1.140661766110270398e-01,4.396225416650131890e-01
2.144000000000000128e+01,2.046185813834691947e-01,-3.667143942756090902e-01,-1.085293717580875228e-01,4.303444206435145802e-01
2.145199999999999818e+01,1.842720339081979630e-01,-3.774674193577974290e-01,-1.035047479534893233e-01,4.206863055496298243e-01
2.146399999999999864e+01,1.630448524553083645e-01,-3.871564766778756717e-01,-9.903213071782324128e-02,4.106742234716971862e-01
2.147599999999999909e+01,1.409920968247008188e-01,-3.956916131240411638e-01,-9.515061750950740138e-02,4.003388316003564373e-01
2.148799999999999955e+01,1.181792045451535850e-01,-4.029844741727689472e-01,-9.189801960815988102e-02,3.897155653016541876e-01
2.150000000000000000e+01,9.468230101884266003e-02,-4.089495708433850130e-01,-8.931025250697759155e-02,3.788447181960150623e-01
2.151200000000000045e+01,7.058835010624829598e-02,-4.135056574477252167e-01,-8.742068268596731029e-02,3.677714417453935569e-01
2.152400000000000091e+01,4.599511767401710111e-02,-4.165772002759076109e-01,-8.625944151064039722e-02,3.565456525183887670e-01
2.153600000000000136e+01,2.101092274141879226e-02,-4.180959108754956355e-01,-8.585271992736745461e-02,3.452218366372335479e-01
2.154800000000000182e+01,-4.245845469347581461e-03,-4.180023111435594574e-01,-8.622206044828568949e-02,3.338587429720860089e-01
2.155999999999999872e+01,-2.964746095611968738e-02,-4.162472914470018992e-01,-8.738366544864842322e-02,3.225189594589787934e-01
2.157199999999999918e+01,-5.505785425375694236e-02,-4.127936178545500434e-01,-8.934774283260966954e-02,3.112683704500088799e-01
2.158399999999999963e+01,-8.033386660233968191e-02,-4.076173407663160053e-01,-9.211791144996873959e-02,3.001754971711400599e-01
2.159600000000000009e+01,-1.053267562226110621e-01,-4.007090552134929262e-01,-9.569068907013425496e-02,2.893107280135329695e-01
2.160800000000000054e+01,-1.298839374239528499e-01,-3.920749632656759243e-01,-1.000550850779631518e-01,2.787454503058763855e-01
2.162000000000000099e+01,-1.538509224484848059e-01,-3.817376916188456870e-01,-1.051923182414643831e-01,2.685511001394279562e-01
2.163200000000000145e+01,-1.770734254804007535e-01,-3.697368226900385468e-01,-1.110756768796912763e-01,2.587981514373158820e-01
2.164399999999999835e+01,-1.993995788193389240e-01,-3.561291053805643592e-01,-1.176705345846778827e-01,2.495550694505100919e-01
2.165599999999999881e+01,-2.206822035286034045e-01,-3.409883218508173996e-01,-1.249345294734939132e-01,2.408872569107335382e-01
2.166799999999999926e+01,-2.407810715583971195e-01,-3.244047987335794692e-01,-1.328179090073549062e-01,2.328560229023649564e-01
2.167999999999999972e+01,-2.595650939184948602e-01,-3.064845645703893617e-01,-1.412640360364472714e-01,2.255176049279244976e-01
2.169200000000000017e+01,-2.769143702539300089e-01,-2.873481691156038464e-01,-1.502100452902296879e-01,2.189222735276249721e-01
2.170400000000000063e+01,-2.927220392541049487e-01,-2.671291936601682959e-01,-1.595876334385527007e-01,2.131135461761306527e-01
2.171600000000000108e+01,-3.068958765423974722e-01,-2.459724938198640243e-01,-1.693239604934772546e-01,2.081275331403169837e-01
2.172800000000000153e+01,-3.193595966487445814e-01,-2.240322265183288530e-01,-1.793426360536252429e-01,2.039924327713695529e-01
2.173999999999999844e+01,-3.300538277486074756e-01,-2.014697205255487067e-01,-1.895647609815344914e-01,2.007281876452967628e-01
2.175199999999999889e+01,-3.389367412874227936e-01,-1.784512544414975366e-01,-1.999099937158312079e-01,1.983463064422237021e-01
2.176399999999999935e+01,-3.459843325433012984e-01,-1.551458072363066376e-01,-2.102976106033707382e-01,1.968498498784036488e-01
2.177599999999999980e+01,-3.511903617475963246e-01,-1.317228444161702428e-01,-2.206475313240212344e-01,1.962335727767071936e-01
2.178800000000000026e+01,-3.545659777856775552e-01,-1.083501978580717479e-01,-2.308812834980943363e-01,1.964842088383563778e-01
2.180000000000000071e+01,-3.561390570745582296e-01,-8.519208982118865736e-02,-2.409228846558900128e-01,1.975808801446259921e-01
2.181200000000000117e+01,-3.559532984733883576e-01,-6.240734221546531679e-02,-2.506996245957963110e-01,1.994956100649329378e-01
2.182400000000000162e+01,-3.540671207441737911e-01,-4.014780158126626114e-02,-2.601427364238862450e-01,2.021939161714157995e-01
2.183599999999999852e+01,-3.505524120644364916e-01,-1.855699911231499868e-02,-2.691879499214263616e-01,2.056354589576690484e-01
2.184799999999999898e+01,-3.454931815084819613e-01,2.230945905429006747e-03,-2.777759260274662578e-01,2.097747225448274022e-01
2.185999999999999943e+01,-3.389841605193568141e-01,2.209218109980462877e-02,-2.858525759034859504e-01,2.145617049797709508e-01
2.187199999999999989e+01,-3.311293985589511824e-01,4.091374539185110848e-02,-2.933692720820247901e-01,2.199425979919825969e-01
