Frequency, Re(SMin1Min1), Im(SMin1Min1), Re(SMax1Min1), Im(SMax1Min1)
2.000000000000000000e+01,-5.139501983404448637e-01,-4.739221006286146315e-02,-4.958129554460111721e-01,-3.233918879420893261e-02
2.001200000000000045e+01,-5.114604001005095268e-01,-3.276212075038268529e-02,-5.012315173885472097e-01,-2.746974151811738818e-02
2.002400000000000091e+01,-5.085934324939468398e-01,-1.825960237860650703e-02,-5.065283161534953615e-01,-2.246263751286857110e-02
2.003600000000000136e+01,-5.053548914674198533e-01,-3.895059724359314912e-03,-5.117000831274783890e-01,-1.732194265194149721e-02
2.004799999999999827e+01,-5.017506583570773282e-01,1.032139929949768900e-02,-5.167437198276062515e-01,-1.205178160772115044e-02
2.005999999999999872e+01,-4.977868817972724846e-01,2.437997024926388465e-02,-5.216562971741018906e-01,-6.656329297761533204e-03
2.007199999999999918e+01,-4.934699596423449131e-01,3.827115761229372276e-02,-5.264350543004002736e-01,-1.139802541202516702e-03
2.008399999999999963e+01,-4.888065209721660920e-01,5.198577915086065315e-02,-5.310773969232133185e-01,4.493548050691036425e-03
2.009600000000000009e+01,-4.838034082485959120e-01,6.551496915724001890e-02,-5.355808952960031677e-01,1.023944592805563561e-02
2.010800000000000054e+01,-4.784676596862214581e-01,7.885018065303257828e-02,-5.399432817701302900e-01,1.609359618035895514e-02
2.012000000000000099e+01,-4.728064918967431196e-01,9.198318656894449719e-02,-5.441624479885598387e-01,2.205169282123405419e-02
2.013200000000000145e+01,-4.668272828623279413e-01,1.049060799441751540e-01,-5.482364417374063770e-01,2.810942576484137118e-02
2.014399999999999835e+01,-4.605375552891635138e-01,1.176112731869791150e-01,-5.521634634808669784e-01,3.426248748046588355e-02
2.015599999999999881e+01,-4.539449603882432793e-01,1.300914964399733365e-01,-5.559418626051475520e-01,4.050657931408115087e-02
2.016799999999999926e+01,-4.470572621262260404e-01,1.423397950954625735e-01,-5.595701333969153035e-01,4.683741746754641749e-02
2.017999999999999972e+01,-4.398823219851271671e-01,1.543495265073802358e-01,-5.630469107816020724e-01,5.325073862803537950e-02
2.019200000000000017e+01,-4.324280842655296997e-01,1.661143559472312015e-01,-5.663709658464946006e-01,5.974230524202170378e-02
2.020400000000000063e+01,-4.247025619639559491e-01,1.776282518522153964e-01,-5.695412011730919266e-01,6.630791042987586870e-02
2.021600000000000108e+01,-4.167138232513513119e-01,1.888854804137631294e-01,-5.725566460026193516e-01,7.294338253870091826e-02
2.022800000000000153e+01,-4.084699785756755741e-01,1.998805995548889602e-01,-5.754164512579081903e-01,7.964458933253217021e-02
2.023999999999999844e+01,-3.999791684083010002e-01,2.106084523443771950e-01,-5.781198844440784690e-01,8.640744182035398069e-02
2.025199999999999889e+01,-3.912495516503150528e-01,2.210641598952880205e-01,-5.806663244496504950e-01,9.322789772371711803e-02
2.026399999999999935e+01,-3.822892947117674245e-01,2.312431137944983006e-01,-5.830552562687765228e-01,1.001019645867557706e-01
2.027599999999999980e+01,-3.731065612738669879e-01,2.411409681091422619e-01,-5.852862656644066686e-01,1.070257025325648814e-01
2.028800000000000026e+01,-3.637095027413070891e-01,2.507536310145039304e-01,-5.873590337911597237e-01,1.139952266706879686e-01
2.030000000000000071e+01,-3.541062493894130414e-01,2.600772560867819494e-01,-5.892733317957257189e-01,1.210067091612980900e-01
2.031200000000000117e+01,-3.443049022083851107e-01,2.691082333026643680e-01,-5.910290154115848127e-01,1.280563809423481691e-01
2.032400000000000162e+01,-3.343135254448088567e-01,2.778431797861438124e-01,-5.926260195638060058e-01,1.351405331264771137e-01
2.033599999999999852e+01,-3.241401398387011579e-01,2.862789303414080000e-01,-5.940643529986907589e-01,1.422555180749693615e-01
2.034799999999999898e+01,-3.137927165526736006e-01,2.944125278089944620e-01,-5.953440929520076308e-01,1.493977501563839017e-01
2.035999999999999943e+01,-3.032791717883678295e-01,3.022412132806394647e-01,-5.964653798685826125e-01,1.565637061977055711e-01
2.037199999999999989e+01,-2.926073620839712008e-01,3.097624162066063835e-01,-5.974284121850570450e-01,1.637499256360925581e-01
2.038400000000000034e+01,-2.817850802857259085e-01,3.169737444274687288e-01,-5.982334411866957469e-01,1.709530103792803180e-01
2.039600000000000080e+01,-2.708200521854130516e-01,3.238729741606451440e-01,-5.988807659482450196e-01,1.781696243827317061e-01
2.040800000000000125e+01,-2.597199338152091919e-01,3.304580399702790050e-01,-5.993707283679983178e-01,1.853964929515042326e-01
2.042000000000000171e+01,-2.484923093908805170e-01,3.367270247474090095e-01,-5.997037083034405525e-01,1.926304017746256758e-01
2.043199999999999861e+01,-2.371446898940246795e-01,3.426781497257719855e-01,-5.998801188160983733e-01,1.998681956995186360e-01
2.044399999999999906e+01,-2.256845122839943318e-01,3.483097645570981671e-01,-5.999004015325537509e-01,2.071067772537126539e-01
2.045599999999999952e+01,-2.141191393302946944e-01,3.536203374682406197e-01,-5.997650221279571259e-01,2.143431049206517836e-01
2.046799999999999997e+01,-2.024558600564243249e-01,3.586084455212521505e-01,-5.994744659378301588e-01,2.215741911760544525e-01
2.048000000000000043e+01,-1.907018907866228075e-01,3.632727649961751681e-01,-5.990292337034612835e-01,2.287971002907051576e-01
2.049200000000000088e+01,-1.788643767875499890e-01,3.676120619152672409e-01,-5.984298374558000289e-01,2.360089459050700722e-01
2.050400000000000134e+01,-1.669503944976044596e-01,3.716251827263647445e-01,-5.976767965424056861e-01,2.432068883805294235e-01
2.051599999999999824e+01,-1.549669543374351810e-01,3.753110451622244659e-01,-5.967706338017774170e-01,2.503881319314008591e-01
2.052799999999999869e+01,-1.429210040961819694e-01,3.786686292920344310e-01,-5.957118718891883935e-01,2.575499215412658804e-01
2.053999999999999915e+01,-1.308194328890770752e-01,3.816969687806436862e-01,-5.945010297580937131e-01,2.646895396663999644e-01
2.055199999999999960e+01,-1.186690756831301624e-01,3.843951423707809290e-01,-5.931386193011461971e-01,2.718043027284403612e-01
2.056400000000000006e+01,-1.064767183890574231e-01,3.867622656032997375e-01,-5.916251421549798550e-01,2.788915573976078477e-01
2.057600000000000051e+01,-9.424910351887279270e-02,3.887974827904535635e-01,-5.899610866730879977e-01,2.859486766670865099e-01
2.058800000000000097e+01,-8.199293641007054934e-02,3.904999592574315836e-01,-5.881469250714189689e-01,2.929730557183462536e-01
2.060000000000000142e+01,-6.971489201891103993e-02,3.918688738678215433e-01,-5.861831107517012640e-01,2.999621075764143940e-01
2.061199999999999832e+01,-5.742162228686459313e-02,3.929034118492448213e-01,-5.840700758080319410e-01,3.069132585532696189e-01
2.062399999999999878e+01,-4.511976408598322719e-02,3.936027579363423623e-01,-5.818082287228412142e-01,3.138239434767550740e-01
2.063599999999999923e+01,-3.281594775074523490e-02,3.939660898494531382e-01,-5.793979522591434783e-01,3.206916007015110925e-01
2.064799999999999969e+01,-2.051680620556876541e-02,3.939925721286499649e-01,-5.768396015568110213e-01,3.275136668977144949e-01
2.066000000000000014e+01,-8.228984699108271225e-03,3.936813503446638385e-01,-5.741335024416347466e-01,3.342875716125254248e-01
2.067200000000000060e+01,4.040848841765264793e-03,3.930315457101438148e-01,-5.712799499571022954e-01,3.410107315983734733e-01
2.068400000000000105e+01,1.628599282360586667e-02,3.920422501171292873e-01,-5.682792071301245862e-01,3.476805449014614413e-01
2.069600000000000151e+01,2.849970034708943292e-02,3.907125216293768633e-01,-5.651315039834274856e-01,3.542943847031017612e-01
2.070799999999999841e+01,4.067516689843817673e-02,3.890413804612800619e-01,-5.618370368089924405e-01,3.608495929058036511e-01
2.071999999999999886e+01,5.280551735152152343e-02,3.870278054787200661e-01,-5.583959677187716464e-01,3.673434734554020809e-01
2.073199999999999932e+01,6.488379225882333345e-02,3.846707312612320240e-01,-5.548084244910030938e-01,3.737732853898692031e-01
2.074399999999999977e+01,7.690293340804786604e-02,3.819690457693326602e-01,-5.510745007326679490e-01,3.801362356050251301e-01
2.075600000000000023e+01,8.885576861956553940e-02,3.789215886659837440e-01,-5.471942563812386418e-01,3.864294713268686121e-01
2.076800000000000068e+01,1.007349957587206218e-01,3.755271503467830785e-01,-5.431677185715875211e-01,3.926500722799908250e-01
2.078000000000000114e+01,1.125331659359790903e-01,3.717844717397180143e-01,-5.389948828970259065e-01,3.987950425413585021e-01
2.079200000000000159e+01,1.242426658671207940e-01,3.676922449422945216e-01,-5.346757150967730299e-01,4.048613020687589215e-01
2.080399999999999849e+01,1.358556993652783595e-01,3.632491147715002922e-01,-5.302101532058588473e-01,4.108456778933886611e-01
2.081599999999999895e+01,1.473642679366286012e-01,3.584536813104953201e-01,-5.255981102074562816e-01,4.167448949665309432e-01
2.082799999999999940e+01,1.587601504519730311e-01,3.533045035452763716e-01,-5.208394772320596999e-01,4.225555666509173691e-01
2.083999999999999986e+01,1.700348818676457596e-01,3.478001041946512384e-01,-5.159341273526409921e-01,4.282741848484927782e-01
2.085200000000000031e+01,1.811797309708824133e-01,3.419389758481067298e-01,-5.108819200301575325e-01,4.338971097576386771e-01
2.086400000000000077e+01,1.921856771274943199e-01,3.357195885382691647e-01,-5.056827062693509678e-01,4.394205592548342532e-01
2.087600000000000122e+01,2.030433860133339374e-01,3.291403988879287867e-01,-5.003363345508726745e-01,4.448405978980968789e-01
2.088800000000000168e+01,2.137431843158690281e-01,3.221998609860025620e-01,-4.948426576122902931e-01,4.501531255525629827e-01
2.089999999999999858e+01,2.242750333983979938e-01,3.148964391623917947e-01,-4.892015401575708355e-01,4.553538656422619346e-01
2.091199999999999903e+01,2.346285019273116335e-01,3.072286228485159865e-01,-4.834128675821352528e-01,4.604383530366911725e-01
2.092399999999999949e+01,2.447927374724479244e-01,2.991949437284407987e-01,-4.774765558086346284e-01,4.654019215862247871e-01
2.093599999999999994e+01,2.547564371026330710e-01,2.907939954048475162e-01,-4.713925623370578966e-01,4.702396913270204815e-01
2.094800000000000040e+01,2.645078170128498107e-01,2.820244558248425348e-01,-4.651608986218176423e-01,4.749465553838436160e-01
2.096000000000000085e+01,2.740345812369068268e-01,2.728851127325001569e-01,-4.587816438978519207e-01,4.795171666085081830e-01
2.097200000000000131e+01,2.833238895202671026e-01,2.633748924381921763e-01,-4.522549605876211021e-01,4.839459240025059672e-01
2.098400000000000176e+01,2.923623244522678966e-01,2.534928922189554346e-01,-4.455811114309817245e-01,4.882269589851511715e-01
2.099599999999999866e+01,3.011358579860528017e-01,2.432384166893193922e-01,-4.387604784902885413e-01,4.923541215834060791e-01
2.100799999999999912e+01,3.096298175086072968e-01,2.326110185077741588e-01,-4.317935841934386065e-01,4.963209666368159079e-01
2.101999999999999957e+01,3.178288516630175531e-01,2.216105438103407876e-01,-4.246811145879251237e-01,5.001207401308819245e-01
2.103200000000000003e+01,3.257168961713444166e-01,2.102371827886521938e-01,-4.174239449888114128e-01,5.037463657951615215e-01
2.104400000000000048e+01,3.332771399599513407e-01,1.984915258556009809e-01,-4.100231682129156230e-01,5.071904321286414552e-01
2.105600000000000094e+01,3.404919919505757231e-01,1.863746258656246990e-01,-4.024801255996748872e-01,5.104451800449524290e-01
2.106800000000000139e+01,3.473430489511359909e-01,1.738880668786924044e-01,-3.947964410259727774e-01,5.135024913640807709e-01
2.107999999999999829e+01,3.538110651605381185e-01,1.610340399755756380e-01,-3.869740581269117685e-01,5.163538784158211437e-01
2.109199999999999875e+01,3.598759238933300630e-01,1.478154266458994170e-01,-3.790152809364624176e-01,5.189904750636480379e-01
2.110399999999999920e+01,3.655166122330611445e-01,1.342358902780061147e-01,-3.709228181604116159e-01,5.214030295063678544e-01
2.111599999999999966e+01,3.707111994393681442e-01,1.202999762787543420e-01,-3.626998312877975361e-01,5.235818992691316787e-01
2.112800000000000011e+01,3.754368200632872687e-01,1.060132213398828072e-01,-3.543499867353044896e-01,5.255170488554401498e-01
2.114000000000000057e+01,3.796696628690005015e-01,9.138227234237424057e-02,-3.458775122001572777e-01,5.271980505977824638e-01
2.115200000000000102e+01,3.833849668188364923e-01,7.641501534823612329e-02,-3.372872573695852028e-01,5.286140893166187960e-01
2.116400000000000148e+01,3.865570255513871567e-01,6.112071506641962582e-02,-3.285847590970266130e-01,5.297539714753283224e-01
2.117599999999999838e+01,3.891592019702015404e-01,4.551016509164802076e-02,-3.197763111048618212e-01,5.306061396021294341e-01
2.118799999999999883e+01,3.911639547614085277e-01,2.959584909693266028e-02,-3.108690382083078019e-01,5.311586928381406558e-01
2.119999999999999929e+01,3.925428788710813022e-01,1.339211300683071718e-02,-3.018709749727343516e-01,5.313994145625272614e-01
2.121199999999999974e+01,3.932667621943508052e-01,-3.084652017457530440e-03,-2.927911486140560293e-01,5.313158081395001897e-01
2.122400000000000020e+01,3.933056609540780957e-01,-1.981581619435212813e-02,-2.836396658264290771e-01,5.308951419254659410e-01
2.123600000000000065e+01,3.926289964717971648e-01,-3.678030805318741048e-02,-2.744278030698472093e-01,5.301245047650019471e-01
2.124800000000000111e+01,3.912056762497438944e-01,-5.395440275774997241e-02,-2.651680996694754655e-01,5.289908732874878394e-01
2.126000000000000156e+01,3.890042424808880517e-01,-7.131150333346322756e-02,-2.558744528657204143e-01,5.274811923874277442e-01
2.127199999999999847e+01,3.859930512711191031e-01,-8.882191682130227695e-02,-2.465622137064238661e-01,5.255824703244607043e-01
2.128399999999999892e+01,3.821404859791733277e-01,-1.064526279768119171e-01,-2.372482823881339464e-01,5.232818899065120322e-01
2.129599999999999937e+01,3.774152081370006351e-01,-1.241670738156259168e-01,-2.279512013311103813e-01,5.205669372125149019e-01
2.130799999999999983e+01,3.717864493841480655e-01,-1.419249230802122064e-01,-2.186912439124466256e-01,5.174255492593450301e-01
2.132000000000000028e+01,3.652243477089169299e-01,-1.596818655639878626e-01,-2.094904963857335822e-01,5.138462819092618483e-01
2.133200000000000074e+01,3.577003310076116160e-01,-1.773894171729789582e-01,-2.003729300880206232e-01,5.098184991359243634e-01
2.134400000000000119e+01,3.491875505194311780e-01,-1.949947476192222806e-01,-1.913644605829564749e-01,5.053325845047812459e-01
2.135600000000000165e+01,3.396613660338024254e-01,-2.124405387043307170e-01,-1.824929899238303121e-01,5.003801753621066606e-01
2.136799999999999855e+01,3.290998838643437452e-01,-2.296648822368369536e-01,-1.737884277572216418e-01,4.949544197512542598e-01
2.137999999999999901e+01,3.174845474042915505e-01,-2.466012276929207825e-01,-1.652826865475827411e-01,4.890502554705409288e-01
2.139199999999999946e+01,3.048007785910062939e-01,-2.631783907240002329e-01,-1.570096458116312932e-01,4.826647099425978582e-01
2.140399999999999991e+01,2.910386667871568411e-01,-2.793206344706158362e-01,-1.490050799408803306e-01,4.757972186716227792e-01
2.141600000000000037e+01,2.761936994194620909e-01,-2.949478362790124431e-01,-1.413065439996483430e-01,4.684499590202344521e-01
2.142800000000000082e+01,2.602675262034021553e-01,-3.099757527414396252e-01,-1.339532118580107900e-01,4.606281948466443010e-01
2.144000000000000128e+01,2.432687459465901758e-01,-3.243163958872402608e-01,-1.269856612029924559e-01,4.523406262213760520e-01
2.145199999999999818e+01,2.252137018131104285e-01,-3.378785327252661896e-01,-1.204456004177420630e-01,4.435997370191375744e-01
2.146399999999999864e+01,2.061272676273815940e-01,-3.505683190623003487e-01,-1.143755330780708013e-01,4.344221316994806847e-01
2.147599999999999909e+01,1.860436044174114678e-01,-3.622900764852239330e-01,-1.088183569349756435e-01,4.248288511104662546e-01
2.148799999999999955e+01,1.650068631021232857e-01,-3.729472185012009944e-01,-1.038168957673852033e-01,4.148456557515132204e-01
2.150000000000000000e+01,1.430718062163464088e-01,-3.824433280123125112e-01,-9.941336442321006828e-02,4.045032637120840047e-01
2.151200000000000045e+01,1.203043190774716054e-01,-3.906833835350446149e-01,-9.564876971820096552e-02,3.938375295740736970e-01
2.152400000000000091e+01,9.678177909846544247e-02,-3.975751258946152999e-01,-9.256225260204634098e-02,3.828895500517226491e-01
2.153600000000000136e+01,7.259325132794829105e-02,-4.030305506366672619e-01,-9.019038006524329742e-02,3.717056821715439274e-01
2.154800000000000182e+01,4.783947903208005115e-02,-4.069675042969163048e-01,-8.856639854456231642e-02,3.603374604888338051e-01
2.155999999999999872e+01,2.263264047983148258e-02,-4.093113552376601572e-01,-8.771946394355771559e-02,3.488414013018520943e-01
2.157199999999999918e+01,-2.904152750171805440e-03,-4.099967023756951878e-01,-8.767386663156691295e-02,3.372786841331713581e-01
2.158399999999999963e+01,-2.863763454945760303e-02,-4.089690782477224396e-01,-8.844827270015981346e-02,3.257147039274155831e-01
2.159600000000000009e+01,-5.442545077927676139e-02,-4.061865970057678132e-01,-9.005500509815013432e-02,3.142184914327517675e-01
2.160800000000000054e+01,-8.011751440808356772e-02,-4.016214936516170897e-01,-9.249938978811939050e-02,3.028620039874046488e-01
2.162000000000000099e+01,-1.055576390788611346e-01,-3.952614986327602220e-01,-9.577919253880047556e-02,2.917192942424288171e-01
2.163200000000000145e+01,-1.305854288543136787e-01,-3.871109922884046206e-01,-9.988417119997923532e-02,2.808655699645973280e-01
2.164399999999999835e+01,-1.550383895720714444e-01,-3.771918868813454728e-01,-1.047957661781705740e-01,2.703761636603005947e-01
2.165599999999999881e+01,-1.787542154147924445e-01,-3.655441902290558209e-01,-1.104869483100720945e-01,2.603254359797438910e-01
2.166799999999999926e+01,-2.015731937822269892e-01,-3.522262141837365079e-01,-1.169222384908206736e-01,2.507856413201725587e-01
2.167999999999999972e+01,-2.233406631557561250e-01,-3.373144030911991997e-01,-1.240579074429051243e-01,2.418257873832617977e-01
2.169200000000000017e+01,-2.439094530929175331e-01,-3.209027713258101877e-01,-1.318423572052322967e-01,2.335105223450354983e-01
2.170400000000000063e+01,-2.631422333375423861e-01,-3.031019542833510161e-01,-1.402166786679888422e-01,2.258990835440128075e-01
2.171600000000000108e+01,-2.809137006040399731e-01,-2.840378928890514021e-01,-1.491153722268233339e-01,2.190443400793203876e-01
2.172800000000000153e+01,-2.971125369372926706e-01,-2.638501867385060762e-01,-1.584672118521043560e-01,2.129919584637448848e-01
2.173999999999999844e+01,-3.116430824117514264e-01,-2.426901644411381398e-01,-1.681962270177073393e-01,2.077797156637013476e-01
2.175199999999999889e+01,-3.244266767819066755e-01,-2.207187306920097569e-01,-1.782227723975555178e-01,2.034369777717329464e-01
2.176399999999999935e+01,-3.354026387634493345e-01,-1.981040573613570277e-01,-1.884646523048192912e-01,1.999843555910038873e-01
2.177599999999999980e+01,-3.445288669791986558e-01,-1.750191900186665039e-01,-1.988382656795993630e-01,1.974335410224448972e-01
2.178800000000000026e+01,-3.517820622401310882e-01,-1.516396416464194929e-01,-2.092597380479833125e-01,1.957873208117009989e-01
2.180000000000000071e+01,-3.571575857637959150e-01,-1.281410419853954985e-01,-2.196460091655169922e-01,1.950397573888620062e-01
2.181200000000000117e+01,-3.606689812799557249e-01,-1.046969043915361025e-01,-2.299158487896344472e-01,1.951765206105833816e-01
2.182400000000000162e+01,-3.623472000334260756e-01,-8.147656288613205899e-02,-2.399907778775790812e-01,1.961753494899688977e-01
2.183599999999999852e+01,-3.622395759862260811e-01,-5.864332099804496490e-02,-2.497958781039222864e-01,1.980066196619346963e-01
2.184799999999999898e+01,-3.604086038060008157e-01,-3.635284184101478244e-02,-2.592604785437264137e-01,2.006339904523649353e-01
2.185999999999999943e+01,-3.569305744995884822e-01,-1.475179643884847076e-02,-2.683187143007118580e-01,2.040151049614074841e-01
2.187199999999999989e+01,-3.518941230075848248e-01,6.023224675015165924e-03,-2.769099574487983717e-01,2.081023174067094250e-01
