Frequency, Re(SMin1Min1), Im(SMin1Min1), Re(SMax1Min1), Im(SMax1Min1)
2.000000000000000000e+01,-5.139221989680725633e-01,-9.911017914843839316e-02,-4.702781671427935795e-01,-4.103882295160973109e-02
2.001200000000000045e+01,-5.123999333940618683e-01,-8.385321921796032307e-02,-4.761621093727519960e-01,-3.650109847820682402e-02
2.002400000000000091e+01,-5.104588410522350461e-01,-6.868721832881910516e-02,-4.819340041066612068e-01,-3.180040670780834994e-02
2.003600000000000136e+01,-5.081029678120648763e-01,-5.362501554077128696e-02,-4.875892461442997705e-01,-2.694051421672423799e-02
2.004799999999999827e+01,-5.053367908831652988e-01,-3.867920622868267072e-02,-4.931233997147597137e-01,-2.192531829136609364e-02
2.005999999999999872e+01,-5.021652011475140620e-01,-2.386212594943774856e-02,-4.985322018906603869e-01,-1.675883720488245687e-02
2.007199999999999918e+01,-4.985934848371946781e-01,-9.185835624208315078e-03,-5.038115653849085662e-01,-1.144520045217200556e-02
2.008399999999999963e+01,-4.946273046541785345e-01,5.337891943645005875e-03,-5.089575807387631823e-01,-5.988638982816220889e-03
2.009600000000000009e+01,-4.902726804274898931e-01,1.969758420185063752e-02,-5.139665179125093575e-01,-3.934754696294632029e-04
2.010800000000000054e+01,-4.855359694012920668e-01,3.388207962741637824e-02,-5.188348272924193649e-01,5.335885351619775244e-03
2.012000000000000099e+01,-4.804238462450796110e-01,4.788053714978741243e-02,-5.235591401296689762e-01,1.119496623805501037e-02
2.013200000000000145e+01,-4.749432828743070933e-01,6.168244422484512463e-02,-5.281362684285534348e-01,1.717922686029884141e-02
2.014399999999999835e+01,-4.691015281665508185e-01,7.527762357083465916e-02,-5.325632043026597984e-01,2.328407305960455628e-02
2.015599999999999881e+01,-4.629060876547155812e-01,8.865623858191114259e-02,-5.368371188185697696e-01,2.950486591592609009e-02
2.016799999999999926e+01,-4.563647032750589028e-01,1.018087974388035277e-01,-5.409553603471407568e-01,3.583693060396368063e-02
2.017999999999999972e+01,-4.494853332438509264e-01,1.147261559394142649e-01,-5.449154524425255941e-01,4.227556501691031449e-02
2.019200000000000017e+01,-4.422761321326730832e-01,1.273995190744845463e-01,-5.487150912686541426e-01,4.881604814007613202e-02
2.020400000000000063e+01,-4.347454312085786143e-01,1.398204413752471009e-01,-5.523521425920667749e-01,5.545364815894957694e-02
2.021600000000000108e+01,-4.269017191018830704e-01,1.519808260609719630e-01,-5.558246383586528117e-01,6.218363028830317663e-02
2.022800000000000153e+01,-4.187536228613302769e-01,1.638729230146168114e-01,-5.591307728700477542e-01,6.900126431065313481e-02
2.023999999999999844e+01,-4.103098894539147223e-01,1.754893256145030334e-01,-5.622688985732130496e-01,7.590183181357933184e-02
2.025199999999999889e+01,-4.015793677649365234e-01,1.868229664491312392e-01,-5.652375214740793519e-01,8.288063311600615823e-02
2.026399999999999935e+01,-3.925709911531318763e-01,1.978671119409803614e-01,-5.680352961831696135e-01,8.993299387331189776e-02
2.027599999999999980e+01,-3.832937606159227961e-01,2.086153559038343430e-01,-5.706610205979855133e-01,9.705427135008726225e-02
2.028800000000000026e+01,-3.737567286214431017e-01,2.190616120566839797e-01,-5.731136302236977675e-01,1.042398603470850588e-01
2.030000000000000071e+01,-3.639689836667889811e-01,2.292001055162635192e-01,-5.753921921307016962e-01,1.114851987655088444e-01
2.031200000000000117e+01,-3.539396356262530796e-01,2.390253632898669267e-01,-5.774958985450432403e-01,1.187857727869572194e-01
2.032400000000000162e+01,-3.436778019589917799e-01,2.485322037908145321e-01,-5.794240600660597318e-01,1.261371216410751839e-01
2.033599999999999852e+01,-3.331925948526470171e-01,2.577157254012164556e-01,-5.811760985052324413e-01,1.335348419252385677e-01
2.034799999999999898e+01,-3.224931093876090005e-01,2.665712941111126888e-01,-5.827515393417564971e-01,1.409745914315164439e-01
2.035999999999999943e+01,-3.115884128156912181e-01,2.750945302700513739e-01,-5.841500037943244683e-01,1.484520924259209729e-01
2.037199999999999989e+01,-3.004875350561355130e-01,2.832812944975504066e-01,-5.853712005157059028e-01,1.559631343141827664e-01
2.038400000000000034e+01,-2.891994605207424685e-01,2.911276728127589752e-01,-5.864149169275154616e-01,1.635035756174435806e-01
2.039600000000000080e+01,-2.777331213872030746e-01,2.986299610617508815e-01,-5.872810102275963784e-01,1.710693451715648294e-01
2.040800000000000125e+01,-2.660973924443614802e-01,3.057846487431581384e-01,-5.879693981220138754e-01,1.786564424563544529e-01
2.042000000000000171e+01,-2.543010876337425952e-01,3.125884023592611083e-01,-5.884800493577069247e-01,1.862609369575279894e-01
2.043199999999999861e+01,-2.423529584066444476e-01,3.190380484496337932e-01,-5.888129741598504552e-01,1.938789664664391510e-01
2.044399999999999906e+01,-2.302616940038225701e-01,3.251305564969666495e-01,-5.889682147087936803e-01,2.015067342323652033e-01
2.045599999999999952e+01,-2.180359237439211395e-01,3.308630219280840890e-01,-5.889458358231077773e-01,2.091405049010960915e-01
2.046799999999999997e+01,-2.056842213758349469e-01,3.362326494653309905e-01,-5.887459160451476992e-01,2.167765992031861211e-01
2.048000000000000043e+01,-1.932151115089405236e-01,3.412367371113823600e-01,-5.883685393500928118e-01,2.244113873957252481e-01
2.049200000000000088e+01,-1.806370780833052581e-01,3.458726610710036176e-01,-5.878137877147999735e-01,2.320412815125490191e-01
2.050400000000000134e+01,-1.679585747810706797e-01,3.501378619226446776e-01,-5.870817347847273604e-01,2.396627265371298887e-01
2.051599999999999824e+01,-1.551880372124989360e-01,3.540298323475040143e-01,-5.861724408621098448e-01,2.472721906763846178e-01
2.052799999999999869e+01,-1.423338966394228911e-01,3.575461067008077198e-01,-5.850859494036732000e-01,2.548661549769310475e-01
2.053999999999999915e+01,-1.294045949301489695e-01,3.606842526674310379e-01,-5.838222851607595132e-01,2.624411025812760090e-01
2.055199999999999960e+01,-1.164086003788782214e-01,3.634418651811786583e-01,-5.823814540202175705e-01,2.699935079629405821e-01
2.056400000000000006e+01,-1.033544239763574679e-01,3.658165627052694657e-01,-5.807634445151572677e-01,2.775198264994355180e-01
2.057600000000000051e+01,-9.025063569254762608e-02,3.678059858745546529e-01,-5.789682308776028519e-01,2.850164847350664665e-01
2.058800000000000097e+01,-7.710588033222169624e-02,3.694077983934043741e-01,-5.769957774092956404e-01,2.924798716486672334e-01
2.060000000000000142e+01,-6.392889255391541459e-02,3.706196899747608020e-01,-5.748460438626082913e-01,2.999063311750497229e-01
2.061199999999999832e+01,-5.072851070257227563e-02,3.714393810044822053e-01,-5.725189914605262054e-01,3.072921561374950539e-01
2.062399999999999878e+01,-3.751368919444991040e-02,3.718646285301169807e-01,-5.700145891509792451e-01,3.146335836397908259e-01
2.063599999999999923e+01,-2.429350930444791959e-02,3.718932331131356572e-01,-5.673328196912056365e-01,3.219267918505150372e-01
2.064799999999999969e+01,-1.107718833273770020e-02,3.715230460551162683e-01,-5.644736851930111099e-01,3.291678980013336142e-01
2.066000000000000014e+01,2.125912739909273375e-03,3.707519765152728630e-01,-5.614372118262510591e-01,3.363529573258212668e-01
2.067200000000000060e+01,1.530628287162881344e-02,3.695779980794986486e-01,-5.582234534682279925e-01,3.434779625951300264e-01
2.068400000000000105e+01,2.845425550575799920e-02,3.679991544167032780e-01,-5.548324941912576858e-01,3.505388438671159790e-01
2.069600000000000151e+01,4.156000360865720611e-02,3.660135637604196024e-01,-5.512644495884959639e-01,3.575314680581472837e-01
2.070799999999999841e+01,5.461353470708494445e-02,3.636194220738151461e-01,-5.475194670390642893e-01,3.644516379695345587e-01
2.071999999999999886e+01,6.760468540991154685e-02,3.608150048844921409e-01,-5.435977250991526066e-01,3.712950904480665226e-01
2.073199999999999932e+01,8.052311490867244959e-02,3.575986679018596792e-01,-5.394994322707393763e-01,3.780574934250028329e-01
2.074399999999999977e+01,9.335829699101781676e-02,3.539688466455002125e-01,-5.352248254412274031e-01,3.847344416521467636e-01
2.075600000000000023e+01,1.060995101643088245e-01,3.499240554109984136e-01,-5.307741683063460503e-01,3.913214510291878057e-01
2.076800000000000068e+01,1.187358255667184670e-01,3.454628859756265213e-01,-5.261477500877006497e-01,3.978139514872325311e-01
2.078000000000000114e+01,1.312560924322845324e-01,3.405840064983687854e-01,-5.213458848397931611e-01,4.042072784544497033e-01
2.079200000000000159e+01,1.436489209673651735e-01,3.352861610976061724e-01,-5.163689116140406377e-01,4.104966629784539411e-01
2.080399999999999849e+01,1.559026625827196200e-01,3.295681705980083032e-01,-5.112171957142894740e-01,4.166772206156186820e-01
2.081599999999999895e+01,1.680053875034795974e-01,3.234289349297093663e-01,-5.058911312438146846e-01,4.227439392205495361e-01
2.082799999999999940e+01,1.799448598456132586e-01,3.168674376424754913e-01,-5.003911451113731701e-01,4.286916657811636888e-01
2.083999999999999986e+01,1.917085103012489966e-01,3.098827529699088590e-01,-4.947177026357812424e-01,4.345150924486351207e-01
2.085200000000000031e+01,2.032834066162312603e-01,3.024740558485154440e-01,-4.888713148664372565e-01,4.402087419091903486e-01
2.086400000000000077e+01,2.146562220733846116e-01,2.946406352672084616e-01,-4.828525477215404593e-01,4.457669522390924621e-01
2.087600000000000122e+01,2.258132022160397601e-01,2.863819112976462855e-01,-4.766620330366228564e-01,4.511838613771422257e-01
2.088800000000000168e+01,2.367401300611896298e-01,2.776974561366337135e-01,-4.703004816127713261e-01,4.564533913426185308e-01
2.089999999999999858e+01,2.474222900629518551e-01,2.685870194798473110e-01,-4.637686983558240161e-01,4.615692323221695648e-01
2.091199999999999903e+01,2.578444310976016896e-01,2.590505585417248735e-01,-4.570675996038814914e-01,4.665248267478915301e-01
2.092399999999999949e+01,2.679907287537413030e-01,2.490882730393813860e-01,-4.501982327497449088e-01,4.713133534914005773e-01
2.093599999999999994e+01,2.778447472277573160e-01,2.387006454678903822e-01,-4.431617982762506291e-01,4.759277123057877312e-01
2.094800000000000040e+01,2.873894011471417320e-01,2.278884870095481963e-01,-4.359596743352301407e-01,4.803605086591133388e-01
2.096000000000000085e+01,2.966069176746448099e-01,2.166529894390832045e-01,-4.285934440138876034e-01,4.846040391199595287e-01
2.097200000000000131e+01,3.054787992857329049e-01,2.049957834089950748e-01,-4.210649254451281909e-01,4.886502774775893787e-01
2.098400000000000176e+01,3.139857876617888621e-01,1.929190035225364086e-01,-4.133762049299605223e-01,4.924908618066191623e-01
2.099599999999999866e+01,3.221078292029541101e-01,1.804253606246166430e-01,-4.055296732498024359e-01,4.961170827189478327e-01
2.100799999999999912e+01,3.298240427384063200e-01,1.675182217611910496e-01,-3.975280653535640529e-01,4.995198730841337587e-01
2.101999999999999957e+01,3.371126900989462327e-01,1.542016982736445496e-01,-3.893745036079889199e-01,5.026897995435758437e-01
2.103200000000000003e+01,3.439511503179756846e-01,1.404807425037616908e-01,-3.810725447988331793e-01,5.056170561939896668e-01
2.104400000000000048e+01,3.503158983426017947e-01,1.263612535851151852e-01,-3.726262310642456388e-01,5.082914608717514771e-01
2.105600000000000094e+01,3.561824892675552467e-01,1.118501927848842975e-01,-3.640401449287462565e-01,5.107024545319288622e-01
2.106800000000000139e+01,3.615255492509563684e-01,9.695570883341241009e-02,-3.553194685852468782e-01,5.128391042841466962e-01
2.107999999999999829e+01,3.663187744329227669e-01,8.168727363353876780e-02,-3.464700475419816850e-01,5.146901107217505267e-01
2.109199999999999875e+01,3.705349393553002968e-01,6.605582867385551005e-02,-3.374984587091779953e-01,5.162438202607323445e-01
2.110399999999999920e+01,3.741459165726413461e-01,5.007394237510106455e-02,-3.284120829448393675e-01,5.174882432899701179e-01
2.111599999999999966e+01,3.771227093497180327e-01,3.375597847138432639e-02,-3.192191820076149544e-01,5.184110790237194122e-01
2.112800000000000011e+01,3.794354995569770295e-01,1.711827536266583016e-02,-3.099289797751829667e-01,5.189997480395628360e-01
2.114000000000000057e+01,3.810537130993668642e-01,1.793361650569056352e-04,-3.005517474757877228e-01,5.192414335784582002e-01
2.115200000000000102e+01,3.819461054412348622e-01,-1.703997107540551961e-02,-2.910988925458636301e-01,5.191231327756052893e-01
2.116400000000000148e+01,3.820808700144296965e-01,-3.451620385909082850e-02,-2.815830505649362103e-01,5.186317190783725772e-01
2.117599999999999838e+01,3.814257725102582763e-01,-5.222312763770721455e-02,-2.720181795272231251e-01,5.177540171863314056e-01
2.118799999999999883e+01,3.799483142482170117e-01,-7.013149184419087412e-02,-2.624196554847502139e-01,5.164768919133488900e-01
2.119999999999999929e+01,3.776159279725045392e-01,-8.820880178134003768e-02,-2.528043683369169958e-01,5.147873524162771552e-01
2.121199999999999974e+01,3.743962095352840191e-01,-1.064190892261173138e-01,-2.431908162443200683e-01,5.126726732513282592e-01
2.122400000000000020e+01,3.702571889643457292e-01,-1.247226853188120876e-01,-2.335991968096543525e-01,5.101205336985737970e-01
2.123600000000000065e+01,3.651676443595928134e-01,-1.430760001097723944e-01,-2.240514927959445790e-01,5.071191767264973116e-01
2.124800000000000111e+01,3.590974618913708727e-01,-1.614313140285830173e-01,-2.145715497447716613e-01,5.036575888400695034e-01
2.126000000000000156e+01,3.520180448545590646e-01,-1.797365875146076930e-01,-2.051851424193648354e-01,4.997257018539019713e-01
2.127199999999999847e+01,3.439027742327730452e-01,-1.979352960903121572e-01,-1.959200265374011762e-01,4.953146173422184884e-01
2.128399999999999892e+01,3.347275225122317011e-01,-2.159662992486207078e-01,-1.868059717878601533e-01,4.904168541244201540e-01
2.129599999999999937e+01,3.244712215189655691e-01,-2.337637526317565828e-01,-1.778747716616919661e-01,4.850266186339802776e-01
2.130799999999999983e+01,3.131164838011189500e-01,-2.512570740600204022e-01,-1.691602251886682728e-01,4.791400973750549741e-01
2.132000000000000028e+01,3.006502755089495160e-01,-2.683709749693720115e-01,-1.606980852901476464e-01,4.727557698840776368e-01
2.133200000000000074e+01,2.870646368139665450e-01,-2.850255696685928819e-01,-1.525259681626474351e-01,4.658747396746834579e-01
2.134400000000000119e+01,2.723574436421279388e-01,-3.011365754469148004e-01,-1.446832179396934370e-01,4.585010795519047777e-01
2.135600000000000165e+01,2.565332018763840649e-01,-3.166156168547832328e-01,-1.372107208844102477e-01,4.506421864418893586e-01
2.136799999999999855e+01,2.396038622349572489e-01,-3.313706473352192039e-01,-1.301506635921642896e-01,4.423091395133965098e-01
2.137999999999999901e+01,2.215896408046416077e-01,-3.453065006840915774e-01,-1.235462301832214588e-01,4.335170538971767074e-01
2.139199999999999946e+01,2.025198267874192548e-01,-3.583255834446941179e-01,-1.174412342912482393e-01,4.242854207848527626e-01
2.140399999999999991e+01,1.824335555255732766e-01,-3.703287171815050627e-01,-1.118796828512425845e-01,4.146384231731184977e-01
2.141600000000000037e+01,1.613805214694337964e-01,-3.812161365311566574e-01,-1.069052702974579022e-01,4.046052150939636882e-01
2.142800000000000082e+01,1.394216026480059878e-01,-3.908886449268447194e-01,-1.025608038191143795e-01,3.942201509367794232e-01
2.144000000000000128e+01,1.166293656412568658e-01,-3.992489249099767656e-01,-9.888756278802512956e-02,3.835229505395703620e-01
2.145199999999999818e+01,9.308841830988812127e-02,-4.062029940141881346e-01,-9.592459833681081516e-02,3.725587852313558823e-01
2.146399999999999864e+01,6.889557690809779145e-02,-4.116617904408734208e-01,-9.370798226239511475e-02,3.613782700777649626e-01
2.147599999999999909e+01,4.415981497979043491e-02,-4.155428653382879367e-01,-9.227001784955993213e-02,3.500373483431570842e-01
2.148799999999999955e+01,1.900196388336353875e-02,-4.177721507394952516e-01,-9.163842870299376830e-02,3.385970557432735339e-01
2.150000000000000000e+01,-6.445860887400938627e-03,-4.182857644941064823e-01,-9.183554505179035432e-02,3.271231544990191864e-01
2.151200000000000045e+01,-3.204112710353120702e-02,-4.170318063170349587e-01,-9.287751002072260065e-02,3.156856305429360798e-01
2.152400000000000091e+01,-5.763205813835306501e-02,-4.139720929100060287e-01,-9.477353079769981758e-02,3.043580514431452055e-01
2.153600000000000136e+01,-8.305911133143721592e-02,-4.090837755544172727e-01,-9.752520121038660283e-02,2.932167875898986087e-01
2.154800000000000182e+01,-1.081567518442792114e-01,-4.023607811780199328e-01,-1.011259227170882569e-01,2.823401047537483222e-01
2.155999999999999872e+01,-1.327554988551589987e-01,-3.938150181441879560e-01,-1.055604500194907841e-01,2.718071420105441782e-01
2.157199999999999918e+01,-1.566842079909694929e-01,-3.834772912554533786e-01,-1.108045852875583770e-01,2.616967949080883926e-01
2.158399999999999963e+01,-1.797725413981813292e-01,-3.713978768746135084e-01,-1.168250413115856923e-01,2.520865292452663664e-01
2.159600000000000009e+01,-2.018535656693117575e-01,-3.576467185922834191e-01,-1.235794888347651610e-01,2.430511555491950415e-01
2.160800000000000054e+01,-2.227664088170893675e-01,-3.423132162023012626e-01,-1.310167970612678146e-01,2.346615978871573471e-01
2.162000000000000099e+01,-2.423589013957988814e-01,-3.255055953241381417e-01,-1.390774691842150690e-01,2.269836927076179511e-01
2.163200000000000145e+01,-2.604901243108265207e-01,-3.073498610457909286e-01,-1.476942671368104976e-01,2.200770537286898809e-01
2.164399999999999835e+01,-2.770327871994678892e-01,-2.879883554904749121e-01,-1.567930121081494432e-01,2.139940373632890080e-01
2.165599999999999881e+01,-2.918753665860428503e-01,-2.675779551814560508e-01,-1.662935401808379732e-01,2.087788398084329256e-01
2.166799999999999926e+01,-3.049239420783965704e-01,-2.462879584388139032e-01,-1.761107862210854191e-01,2.044667518980297638e-01
2.167999999999999972e+01,-3.161036811473654229e-01,-2.242977248364657616e-01,-1.861559643012337950e-01,2.010835914254286705e-01
2.169200000000000017e+01,-3.253599377249479230e-01,-2.017941372160338143e-01,-1.963378097739066075e-01,1.986453252955124593e-01
2.170400000000000063e+01,-3.326589459974216290e-01,-1.789689613946078561e-01,-2.065638468285781459e-01,1.971578860492902707e-01
2.171600000000000108e+01,-3.379881072900374206e-01,-1.560161793191807977e-01,-2.167416459802813944e-01,1.966171795271297595e-01
2.172800000000000153e+01,-3.413558837810468094e-01,-1.331293681254488159e-01,-2.267800383559557542e-01,1.970092731901003091e-01
2.173999999999999844e+01,-3.427913269859260148e-01,-1.104991907539002727e-01,-2.365902576170677007e-01,1.983107483300452223e-01
2.175199999999999889e+01,-3.423432807370176967e-01,-8.831105409654087246e-02,-2.460869855482114843e-01,2.004891943996236769e-01
2.176399999999999935e+01,-3.400793071997871841e-01,-6.674297888964363101e-02,-2.551892833478454081e-01,2.035038201983377371e-01
2.177599999999999980e+01,-3.360843900207403645e-01,-4.596371260650647383e-02,-2.638213970536296693e-01,2.073061547501829360e-01
2.178800000000000026e+01,-3.304594709522384322e-01,-2.613110331467590267e-02,-2.719134319090720231e-01,2.118408103755310690e-01
2.180000000000000071e+01,-3.233198754294862032e-01,-7.390739647069476462e-03,-2.794018964646014513e-01,2.170462815654689848e-01
2.181200000000000117e+01,-3.147936789478854580e-01,1.012514962378332876e-02,-2.862301225061250620e-01,2.228557556050018151e-01
2.182400000000000162e+01,-3.050200601928881317e-01,2.629855290135504550e-02,-2.923485712992032193e-01,2.291979142063995667e-01
2.183599999999999852e+01,-2.941476792661261164e-01,4.102631441246033100e-02,-2.977150399910885592e-01,2.359977094270130082e-01
2.184799999999999898e+01,-2.823331106043056593e-01,5.422058435092143303e-02,-3.022947842666255935e-01,2.431771015798083746e-01
2.185999999999999943e+01,-2.697393508497049619e-01,6.580911412803741589e-02,-3.060605745129020838e-01,2.506557514422033672e-01
