Frequency, Re(SMin1Min1), Im(SMin1Min1), Re(SMax1Min1), Im(SMax1Min1)
2.000000000000000000e+01,-5.184386235959516087e-01,-2.237875241191562559e-01,-4.099221585906240861e-01,-6.410677586476980216e-02
2.001200000000000045e+01,-5.203000013594175632e-01,-2.084203659313679791e-01,-4.164160669939175885e-01,-6.111176660091879875e-02
2.002400000000000091e+01,-5.217367810173708653e-01,-1.930271699993630352e-01,-4.228486628474109610e-01,-5.793141708648486682e-02
2.003600000000000136e+01,-5.227481424837894242e-01,-1.776214476301625211e-01,-4.292142016107554636e-01,-5.456756490566241902e-02
2.004799999999999827e+01,-5.233337677755810491e-01,-1.622167033860217877e-01,-4.355070260949971961e-01,-5.102224955892410013e-02
2.005999999999999872e+01,-5.234938364265725452e-01,-1.468264122039526220e-01,-4.417215748977156853e-01,-4.729770648174588810e-02
2.007199999999999918e+01,-5.232290196105374713e-01,-1.314639970612945519e-01,-4.478523903780045057e-01,-4.339636063275095768e-02
2.008399999999999963e+01,-5.225404730257601216e-01,-1.161428072713928950e-01,-4.538941261462508536e-01,-3.932081968796692639e-02
2.009600000000000009e+01,-5.214298285992986504e-01,-1.008760974886410700e-01,-4.598415540467141738e-01,-3.507386687936477065e-02
2.010800000000000054e+01,-5.198991850747082255e-01,-8.567700749658078985e-02,-4.656895706141028213e-01,-3.065845351700344570e-02
2.012000000000000099e+01,-5.179510975514711735e-01,-7.055854284694366985e-02,-4.714332029885754949e-01,-2.607769123504422026e-02
2.013200000000000145e+01,-5.155885660488609412e-01,-5.553355641155813954e-02,-4.770676142767667494e-01,-2.133484400236148812e-02
2.014399999999999835e+01,-5.128150231703311190e-01,-4.061473090265626390e-02,-4.825881083497203794e-01,-1.643331993898741045e-02
2.015599999999999881e+01,-5.096343209477901537e-01,-2.581456241051267864e-02,-4.879901340717221481e-01,-1.137666297948469046e-02
2.016799999999999926e+01,-5.060507169474219857e-01,-1.114534500104720494e-02,-4.932692889571024808e-01,-6.168544424308172562e-03
2.017999999999999972e+01,-5.020688597205998915e-01,3.380843590992100439e-03,-4.984213222552116851e-01,-8.127544195730524671e-04
2.019200000000000017e+01,-4.976937736846628879e-01,1.775215514406550815e-02,-5.034421374665446480e-01,4.686806594867327230e-03
2.020400000000000063e+01,-4.929308435192478743e-01,3.195698298455557779e-02,-5.083277942958110973e-01,1.032613643013392465e-02
2.021600000000000108e+01,-4.877857981636601337e-01,4.598397285816688274e-02,-5.130745100504155998e-01,1.610113964803515027e-02
2.022800000000000153e+01,-4.822646945008802755e-01,5.982203262835533719e-02,-5.176786604952312576e-01,2.200763597922569120e-02
2.023999999999999844e+01,-4.763739008125214558e-01,7.346034079814933726e-02,-5.221367801768687089e-01,2.804136862465047772e-02
2.025199999999999889e+01,-4.701200800881831787e-01,8.688835385782604781e-02,-5.264455622327982587e-01,3.419801240687540822e-02
2.026399999999999935e+01,-4.635101732707018196e-01,1.000958124665092402e-01,-5.306018577025408689e-01,4.047318173927842710e-02
2.027599999999999980e+01,-4.565513825167205053e-01,1.130727464808917865e-01,-5.346026743599774367e-01,4.686243838321152433e-02
2.028800000000000026e+01,-4.492511545498327763e-01,1.258094788496942340e-01,-5.384451750872989440e-01,5.336129896475570733e-02
2.030000000000000071e+01,-4.416171641806427850e-01,1.382966283967765886e-01,-5.421266758125441454e-01,5.996524222486052103e-02
2.031200000000000117e+01,-4.336572980651847153e-01,1.505251115204440104e-01,-5.456446430337870135e-01,6.666971597844462138e-02
2.032400000000000162e+01,-4.253796387700935488e-01,1.624861428402518126e-01,-5.489966909540169304e-01,7.347014375995994384e-02
2.033599999999999852e+01,-4.167924492095105848e-01,1.741712348263103338e-01,-5.521805782516222560e-01,8.036193113501073626e-02
2.034799999999999898e+01,-4.079041575153324883e-01,1.855721964493351472e-01,-5.551942045119218072e-01,8.734047165931929646e-02
2.035999999999999943e+01,-3.987233423989255399e-01,1.966811308924331092e-01,-5.580356063456773930e-01,9.440115246836509877e-02
2.037199999999999989e+01,-3.892587190587114554e-01,2.074904323682594254e-01,-5.607029532208973599e-01,1.015393594827800339e-01
2.038400000000000034e+01,-3.795191256847720851e-01,2.179927820871527810e-01,-5.631945430342590875e-01,1.087504822162966289e-01
2.039600000000000080e+01,-3.695135106078032416e-01,2.281811434238780745e-01,-5.655087974486847635e-01,1.160299181746918401e-01
2.040800000000000125e+01,-3.592509201364811888e-01,2.380487563319178546e-01,-5.676442570233816154e-01,1.233730768358892588e-01
2.042000000000000171e+01,-3.487404871238516391e-01,2.475891310555305702e-01,-5.695995761624771392e-01,1.307753832026233853e-01
2.043199999999999861e+01,-3.379914203002101214e-01,2.567960411907569962e-01,-5.713735179082886084e-01,1.382322809205937808e-01
2.044399999999999906e+01,-3.270129944067037275e-01,2.656635161471888051e-01,-5.729649486046022311e-01,1.457392349561964784e-01
2.045599999999999952e+01,-3.158145411612170439e-01,2.741858330627056084e-01,-5.743728324552218600e-01,1.532917338290896436e-01
2.046799999999999997e+01,-3.044054410850779435e-01,2.823575082238780620e-01,-5.755962260024252153e-01,1.608852913957747877e-01
2.048000000000000043e+01,-2.927951162169551425e-01,2.901732880445372365e-01,-5.766342725495515742e-01,1.685154481813231075e-01
2.049200000000000088e+01,-2.809930237377601947e-01,2.976281396552810654e-01,-5.774861965514355155e-01,1.761777722570039006e-01
2.050400000000000134e+01,-2.690086505284722262e-01,3.047172411562882877e-01,-5.781512979959364529e-01,1.838678596623113115e-01
2.051599999999999824e+01,-2.568515086810643777e-01,3.114359715859189581e-01,-5.786289467993142033e-01,1.915813343702051919e-01
2.052799999999999869e+01,-2.445311319809699846e-01,3.177799006571411788e-01,-5.789185772378274697e-01,1.993138477948992737e-01
2.053999999999999915e+01,-2.320570733785270456e-01,3.237447783136959689e-01,-5.790196824375170026e-01,2.070610778415444830e-01
2.055199999999999960e+01,-2.194389034655777337e-01,3.293265241578371971e-01,-5.789318089437992532e-01,2.148187274975052463e-01
2.056400000000000006e+01,-2.066862099728351276e-01,3.345212168012914322e-01,-5.786545513924113981e-01,2.225825229646775372e-01
2.057600000000000051e+01,-1.938085983030187753e-01,3.393250831911948651e-01,-5.781875473029083334e-01,2.303482113323415681e-01
2.058800000000000097e+01,-1.808156931146127355e-01,3.437344879629520289e-01,-5.775304720161520411e-01,2.381115577897083002e-01
2.060000000000000142e+01,-1.677171409709984073e-01,3.477459228724040230e-01,-5.766830337971546872e-01,2.458683423770813281e-01
2.061199999999999832e+01,-1.545226140701085882e-01,3.513559963602824743e-01,-5.756449691250674627e-01,2.536143562740640345e-01
2.062399999999999878e+01,-1.412418150700233965e-01,3.545614233029034112e-01,-5.744160381924637848e-01,2.613453976228242714e-01
2.063599999999999923e+01,-1.278844830268225097e-01,3.573590150043426950e-01,-5.729960206367724629e-01,2.690572668838185355e-01
2.064799999999999969e+01,-1.144604004616229104e-01,3.597456694869076710e-01,-5.713847115275039190e-01,2.767457617208271548e-01
2.066000000000000014e+01,-1.009794015749614499e-01,3.617183621388452286e-01,-5.695819176340183310e-01,2.844066714114554251e-01
2.067200000000000060e+01,-8.745138162770918488e-02,3.632741367807555410e-01,-5.675874539998783108e-01,2.920357707786198076e-01
2.068400000000000105e+01,-7.388630750902362709e-02,3.644100972152327644e-01,-5.654011408514373338e-01,2.996288136378450484e-01
2.069600000000000151e+01,-6.029422951316949081e-02,3.651233993279394130e-01,-5.630228008701535503e-01,3.071815257545483235e-01
2.070799999999999841e+01,-4.668529434839219228e-02,3.654112438126236873e-01,-5.604522568603468313e-01,3.146895973048495776e-01
2.071999999999999886e+01,-3.306975940236066974e-02,3.652708695975812048e-01,-5.576893298466093496e-01,3.221486748329200345e-01
2.073199999999999932e+01,-1.945800829003370772e-02,3.646995480568774317e-01,-5.547338376380142044e-01,3.295543526973447324e-01
2.074399999999999977e+01,-5.860567710788485915e-03,3.636945780962861363e-01,-5.515855938995110064e-01,3.369021639987401229e-01
2.075600000000000023e+01,7.711874357306669134e-03,3.622532822114435946e-01,-5.482444077746690958e-01,3.441875709806019312e-01
2.076800000000000068e+01,2.124844909768369011e-02,3.603730036242951962e-01,-5.447100841080484424e-01,3.514059548954549528e-01
2.078000000000000114e+01,3.473808590131865354e-02,3.580511046135516628e-01,-5.409824243201817318e-01,3.585526053286664516e-01
2.079200000000000159e+01,4.816948999037089924e-02,3.552849661656899971e-01,-5.370612279933011379e-01,3.656227089729217616e-01
2.080399999999999849e+01,6.153111859215788099e-02,3.520719890851005118e-01,-5.329462952316961211e-01,3.726113378473799864e-01
2.081599999999999895e+01,7.481115563807327895e-02,3.484095967154157703e-01,-5.286374298668966576e-01,3.795134369570414834e-01
2.082799999999999940e+01,8.799748496481279991e-02,3.442952394389161008e-01,-5.241344435848381833e-01,3.863238113898798121e-01
2.083999999999999986e+01,1.010776619994812886e-01,3.397264011372994053e-01,-5.194371610597279254e-01,3.930371128520845914e-01
2.085200000000000031e+01,1.140388839155529743e-01,3.347006078151293362e-01,-5.145454261876205582e-01,3.996478256452110078e-01
2.086400000000000077e+01,1.268679582540221396e-01,3.292154386069898742e-01,-5.094591095216711718e-01,4.061502520935069693e-01
2.087600000000000122e+01,1.395512700134216577e-01,3.232685394108871235e-01,-5.041781170207207952e-01,4.125384974351963829e-01
2.088800000000000168e+01,1.520747472242021670e-01,3.168576394137432861e-01,-4.987024002332759998e-01,4.188064541982631228e-01
2.089999999999999858e+01,1.644238250376494626e-01,3.099805708000623050e-01,-4.930319680500606649e-01,4.249477860895077286e-01
2.091199999999999903e+01,1.765834083775666696e-01,3.026352919618915949e-01,-4.871669001701328661e-01,4.309559114355727694e-01
2.092399999999999949e+01,1.885378332248483502e-01,2.948199145572204527e-01,-4.811073624380741709e-01,4.368239862264321482e-01
2.093599999999999994e+01,2.002708266316483854e-01,2.865327347945423320e-01,-4.748536242227277548e-01,4.425448868259810875e-01
2.094800000000000040e+01,2.117654655934268770e-01,2.777722693538101084e-01,-4.684060780215762443e-01,4.481111924309043593e-01
2.096000000000000085e+01,2.230041349449659038e-01,2.685372963876831998e-01,-4.617652614886658680e-01,4.535151673785584592e-01
2.097200000000000131e+01,2.339684844909661887e-01,2.588269020818862454e-01,-4.549318820980154388e-01,4.587487434273641584e-01
2.098400000000000176e+01,2.446393856343177242e-01,2.486405332890309905e-01,-4.479068446683095450e-01,4.638035021597546326e-01
2.099599999999999866e+01,2.549968878264503580e-01,2.379780567858601759e-01,-4.406912819881211307e-01,4.686706576883845621e-01
2.100799999999999912e+01,2.650201752355753060e-01,2.268398257387310435e-01,-4.332865887934305715e-01,4.733410398816875198e-01
2.101999999999999957e+01,2.746875241112606281e-01,2.152267539953988951e-01,-4.256944593603682603e-01,4.778050783654004263e-01
2.103200000000000003e+01,2.839762614191438939e-01,2.031403988512358594e-01,-4.179169289850571123e-01,4.820527876030526460e-01
2.104400000000000048e+01,2.928627254287831660e-01,1.905830529637062287e-01,-4.099564196286508144e-01,4.860737534109341174e-01
2.105600000000000094e+01,3.013222290622648014e-01,1.775578461078764214e-01,-4.018157900077641287e-01,4.898571213225795251e-01
2.106800000000000139e+01,3.093290269526252079e-01,1.640688574758268348e-01,-3.934983904076718164e-01,4.933915872846092454e-01
2.107999999999999829e+01,3.168562873205583164e-01,1.501212392209640423e-01,-3.850081224860910090e-01,4.966653912404055404e-01
2.109199999999999875e+01,3.238760699566287093e-01,1.357213519309330430e-01,-3.763495043176660060e-01,4.996663142409555891e-01
2.110399999999999920e+01,3.303593117950581748e-01,1.208769126760316504e-01,-3.675277409012489005e-01,5.023816798134075334e-01
2.111599999999999966e+01,3.362758217848764719e-01,1.055971562185345075e-01,-3.585488003113675437e-01,5.047983604175189098e-01
2.112800000000000011e+01,3.415942870045602375e-01,8.989300987683782052e-02,-3.494194956194330293e-01,5.069027899278966132e-01
2.114000000000000057e+01,3.462822922267806969e-01,7.377728240984936237e-02,-3.401475726358877960e-01,5.086809831950200866e-01
2.115200000000000102e+01,3.503063554187368922e-01,5.726486711433694671e-02,-3.307418034285237174e-01,5.101185638594103455e-01
2.116400000000000148e+01,3.536319819577631862e-01,4.037295910252304554e-02,-3.212120854506130829e-01,5.112008017189548781e-01
2.117599999999999838e+01,3.562237406469727086e-01,2.312128643985955634e-02,-3.115695459613450624e-01,5.119126610768498509e-01
2.118799999999999883e+01,3.580453649249117909e-01,5.532354463538015008e-03,-3.018266512359489284e-01,5.122388616230276748e-01
2.119999999999999929e+01,3.590598829674943038e-01,-1.236829783933117780e-02,-2.919973198394436031e-01,5.121639535206838900e-01
2.121199999999999974e+01,3.592297806677342553e-01,-3.055183105022495071e-02,-2.820970389716416227e-01,5.116724084751311796e-01
2.122400000000000020e+01,3.585172017333128625e-01,-4.898583042923566888e-02,-2.721429825780374845e-01,5.107487286469535315e-01
2.123600000000000065e+01,3.568841893441907498e-01,-6.763402596367061592e-02,-2.621541295578604935e-01,5.093775753254716765e-01
2.124800000000000111e+01,3.542929739379038212e-01,-8.645601127530852525e-02,-2.521513799846916704e-01,5.075439192900982333e-01
2.126000000000000156e+01,3.507063117096864135e-01,-1.054069663053859712e-01,-2.421576667859222654e-01,5.052332147423037600e-01
2.127199999999999847e+01,3.460878782935470355e-01,-1.244373898216089430e-01,-2.321980598066540336e-01,5.024315985733516232e-01
2.128399999999999892e+01,3.404027217891604229e-01,-1.434928490373251209e-01,-2.222998586162136248e-01,4.991261165245158837e-01
2.129599999999999937e+01,3.336177787732837463e-01,-1.625137549852510299e-01,-2.124926698103107858e-01,4.953049774768692459e-01
2.130799999999999983e+01,3.257024561347226510e-01,-1.814351737229321082e-01,-2.028084639328716909e-01,4.909578366555779061e-01
2.132000000000000028e+01,3.166292804478938461e-01,-2.001866849261467463e-01,-1.932816065093563851e-01,4.860761079271454510e-01
2.133200000000000074e+01,3.063746151008122642e-01,-2.186923008974651361e-01,-1.839488570752132179e-01,4.806533045862502185e-01
2.134400000000000119e+01,2.949194434718849234e-01,-2.368704604085044019e-01,-1.748493295350584120e-01,4.746854070535457826e-01
2.135600000000000165e+01,2.822502140673914250e-01,-2.546341130153904619e-01,-1.660244067448404803e-01,4.681712547237845690e-01
2.136799999999999855e+01,2.683597406635411797e-01,-2.718909104255028408e-01,-1.575176019243919034e-01,4.611129578094855241e-01
2.137999999999999901e+01,2.532481471405025331e-01,-2.885435220173354076e-01,-1.493743594435789634e-01,4.535163234248475450e-01
2.139199999999999946e+01,2.369238428776560546e-01,-3.044900915733554925e-01,-1.416417877509526524e-01,4.453912883684540414e-01
2.140399999999999991e+01,2.194045103643574857e-01,-3.196248515145193592e-01,-1.343683178024298597e-01,4.367523491307112038e-01
2.141600000000000037e+01,2.007180821816456906e-01,-3.338389092549372550e-01,-1.276032813724930770e-01,4.276189776349796912e-01
2.142800000000000082e+01,1.809036798942629809e-01,-3.470212175644098451e-01,-1.213964051583163173e-01,4.180160092067857214e-01
2.144000000000000128e+01,1.600124828866644200e-01,-3.590597368950169122e-01,-1.157972186714621154e-01,4.079739873674637640e-01
2.145199999999999818e+01,1.381084910695981049e-01,-3.698427923980145415e-01,-1.108543765824584332e-01,3.975294484073498280e-01
2.146399999999999864e+01,1.152691420202337363e-01,-3.792606217953257697e-01,-1.066148994377436043e-01,3.867251274724783361e-01
2.147599999999999909e+01,9.158574088814244729e-02,-3.872071024299102993e-01,-1.031233404598470016e-01,3.756100672770972815e-01
2.148799999999999955e+01,6.716366071367096957e-02,-3.935816368655749020e-01,-1.004208903709714745e-01,3.642396107161655072e-01
2.150000000000000000e+01,4.212227207048006850e-02,-3.982911666310881005e-01,-9.854443668889072139e-02,3.526752597717036641e-01
2.151200000000000045e+01,1.659456451786178732e-02,-4.012522735358124426e-01,-9.752559851149777970e-02,3.409843853285942084e-01
2.152400000000000091e+01,-9.273571503337019184e-03,-4.023933179890658574e-01,-9.738976215380761026e-02,3.292397759330318308e-01
2.153600000000000136e+01,-3.532442485258054099e-02,-4.016565546143487930e-01,-9.815514680309878059e-02,3.175190181607061568e-01
2.154800000000000182e+01,-6.138991699660457241e-02,-3.990001579232881901e-01,-9.983193226163609990e-02,3.059037070392494062e-01
2.155999999999999872e+01,-8.729342567974263112e-02,-3.944000856871959781e-01,-1.024214825006395657e-01,2.944784917102963862e-01
2.157199999999999918e+01,-1.128519605934586306e-01,-3.878517056528991702e-01,-1.059156988384049314e-01,2.833299689272725241e-01
2.158399999999999963e+01,-1.378786560689971019e-01,-3.793711129993079245e-01,-1.102965348387309336e-01,2.725454446660172114e-01
2.159600000000000009e+01,-1.621855291891633188e-01,-3.689960718117427096e-01,-1.155357013743248396e-01,2.622115915903200922e-01
2.160800000000000054e+01,-1.855864362067707607e-01,-3.567865239618666640e-01,-1.215945847284751469e-01,2.524130368264154711e-01
2.162000000000000099e+01,-2.079001469556465698e-01,-3.428246228777911964e-01,-1.284243932955680401e-01,2.432309199167352332e-01
2.163200000000000145e+01,-2.289534471675268579e-01,-3.272142671637638944e-01,-1.359665397322293301e-01,2.347414644511046922e-01
2.164399999999999835e+01,-2.485841732035176943e-01,-3.100801289310105568e-01,-1.441532558019035792e-01,2.270146083248970881e-01
2.165599999999999881e+01,-2.666440833137987965e-01,-2.915661928009801174e-01,-1.529084272570225556e-01,2.201127366143332265e-01
2.166799999999999926e+01,-2.830014744114862091e-01,-2.718338424340982495e-01,-1.621486265865605680e-01,2.140895576443448134e-01
2.167999999999999972e+01,-2.975434633123325567e-01,-2.510595506705966540e-01,-1.717843129925576140e-01,2.089891571138184634e-01
2.169200000000000017e+01,-3.101778658448776649e-01,-2.294322455942975347e-01,-1.817211621470335992e-01,2.048452574932888570e-01
2.170400000000000063e+01,-3.208346251905561664e-01,-2.071504369283243829e-01,-1.918614835906280736e-01,2.016807008427904391e-01
2.171600000000000108e+01,-3.294667609991177026e-01,-1.844191943729634742e-01,-2.021056813588290035e-01,1.995071633492234431e-01
2.172800000000000153e+01,-3.360508318143656248e-01,-1.614470714445469246e-01,-2.123537136507481771e-01,1.983250999406462878e-01
2.173999999999999844e+01,-3.405869236964758628e-01,-1.384430651510556720e-01,-2.225065099738769148e-01,1.981239079703905615e-01
2.175199999999999889e+01,-3.430981963201355511e-01,-1.156136939332776253e-01,-2.324673089069088372e-01,1.988822907686359220e-01
2.176399999999999935e+01,-3.436300331797362273e-01,-9.316026453373178751e-02,-2.421428859779391485e-01,2.005687952959976095e-01
2.177599999999999980e+01,-3.422488540778344523e-01,-7.127638388535874336e-02,-2.514446486219054644e-01,2.031424935049744029e-01
2.178800000000000026e+01,-3.390406553993795535e-01,-5.014575591177067998e-02,-2.602895831879155630e-01,2.065537744510433926e-01
2.180000000000000071e+01,-3.341093467208836598e-01,-2.994028647311171645e-02,-2.686010469623719144e-01,2.107452136620257821e-01
2.181200000000000117e+01,-3.275749513207588670e-01,-1.081850365086832640e-02,-2.763094056683085831e-01,2.156524875983521772e-01
2.182400000000000162e+01,-3.195717336407554732e-01,7.075713958967651783e-03,-2.833525235008380605e-01,2.212053039386353559e-01
2.183599999999999852e+01,-3.102463093625746904e-01,2.361412060076750405e-02,-2.896761181798166995e-01,2.273283225587649226e-01
2.184799999999999898e+01,-2.997557842594916200e-01,3.868482769851497305e-02,-2.952339975743408229e-01,2.339420470647696204e-01
2.185999999999999943e+01,-2.882659571264049037e-01,5.219280532473702383e-02,-2.999881971146274307e-01,2.409636722213946980e-01
