Frequency, Re(SMin1Min1), Im(SMin1Min1), Re(SMax1Min1), Im(SMax1Min1)
2.000000000000000000e+01,-5.084019584249278578e-01,-2.859260577626818733e-01,-3.777455896379172118e-01,-6.957692865332515408e-02
2.001200000000000045e+01,-5.120510801836697379e-01,-2.707136712654776844e-01,-3.844506455836803616e-01,-6.742594013685987431e-02
2.002400000000000091e+01,-5.152761154293712398e-01,-2.554172290994629058e-01,-3.911210164862908845e-01,-6.508179091875694600e-02
2.003600000000000136e+01,-5.180739362046644647e-01,-2.400505851899626952e-01,-3.977504677223865914e-01,-6.254524218240839484e-02
2.004799999999999827e+01,-5.204419617046567303e-01,-2.246277011926599565e-01,-4.043327992942417626e-01,-5.981729642969472321e-02
2.005999999999999872e+01,-5.223781606779419606e-01,-2.091626192945310325e-01,-4.108618574522186484e-01,-5.689919462985126158e-02
2.007199999999999918e+01,-5.238810521601118264e-01,-1.936694350756910654e-01,-4.173315460655733222e-01,-5.379241268210430832e-02
2.008399999999999963e+01,-5.249497045579401000e-01,-1.781622705497717951e-01,-4.237358376951658734e-01,-5.049865721550850922e-02
2.009600000000000009e+01,-5.255837331116978151e-01,-1.626552474977810414e-01,-4.300687843239151542e-01,-4.701986075299008361e-02
2.010800000000000054e+01,-5.257832957717804012e-01,-1.471624612067428117e-01,-4.363245277037865466e-01,-4.335817626986526035e-02
2.012000000000000099e+01,-5.255490875345369961e-01,-1.316979547199494394e-01,-4.424973092811320119e-01,-3.951597118020441779e-02
2.013200000000000145e+01,-5.248823332897000205e-01,-1.162756937005886421e-01,-4.485814796656568681e-01,-3.549582078685534214e-02
2.014399999999999835e+01,-5.237847792393741653e-01,-1.009095420046581537e-01,-4.545715076118058695e-01,-3.130050123342806301e-02
2.015599999999999881e+01,-5.222586829548130360e-01,-8.561323805265247389e-02,-4.604619884853154987e-01,-2.693298199823024666e-02
2.016799999999999926e+01,-5.203068021432384338e-01,-7.040037208267067859e-02,-4.662476521915252525e-01,-2.239641797167865947e-02
2.017999999999999972e+01,-5.179323822017229961e-01,-5.528436436008876687e-02,-4.719233705462630990e-01,-1.769414115964872136e-02
2.019200000000000017e+01,-5.151391426394575923e-01,-4.027844441136660403e-02,-4.774841640742500948e-01,-1.282965205573697968e-02
2.020400000000000063e+01,-5.119312624528562505e-01,-2.539563134147311899e-02,-4.829252082241891619e-01,-7.806610725434405540e-03
2.021600000000000108e+01,-5.083133645402890810e-01,-1.064871528637174360e-02,-4.882418389939651160e-01,-2.628827644654206999e-03
2.022800000000000153e+01,-5.042904992445562673e-01,3.949759956253038294e-03,-4.934295579634526696e-01,2.699745665990012627e-03
2.023999999999999844e+01,-4.998681271115952285e-01,1.838751308295023465e-02,-4.984840367365280800e-01,8.175026171353140178e-03
2.025199999999999889e+01,-4.950521009532561356e-01,3.265254020008256236e-02,-5.034011207976607505e-01,1.379280897888017672e-02
2.026399999999999935e+01,-4.898486473003151875e-01,4.673312847956050120e-02,-5.081768327920032080e-01,1.954877708798870989e-02
2.027599999999999980e+01,-4.842643473292151945e-01,6.061786854271078440e-02,-5.128073752411993480e-01,2.543851120052499290e-02
2.028800000000000026e+01,-4.783061173423309165e-01,7.429566556679519096e-02,-5.172891327097507430e-01,3.145749956534352187e-02
2.030000000000000071e+01,-4.719811888768081221e-01,8.775574911478922768e-02,-5.216186734390304558e-01,3.760114783494552387e-02
2.031200000000000117e+01,-4.652970885113044686e-01,1.009876816940545319e-01,-5.257927504673516328e-01,4.386478891777559341e-02
2.032400000000000162e+01,-4.582616174332567183e-01,1.139813660535289042e-01,-5.298083022549708865e-01,5.024369281620731653e-02
2.033599999999999852e+01,-4.508828308216767944e-01,1.267270512316291120e-01,-5.336624528321105565e-01,5.673307644742144051e-02
2.034799999999999898e+01,-4.431690170919972416e-01,1.392153373680683481e-01,-5.373525114858052065e-01,6.332811345230965339e-02
2.035999999999999943e+01,-4.351286770403489101e-01,1.514371792917093840e-01,-5.408759719971737434e-01,7.002394400606479219e-02
2.037199999999999989e+01,-4.267705029148679552e-01,1.633838888933775990e-01,-5.442305114342316230e-01,7.681568465322884121e-02
2.038400000000000034e+01,-4.181033574317213897e-01,1.750471362863293412e-01,-5.474139884958911795e-01,8.369843819916754357e-02
2.039600000000000080e+01,-4.091362527436291363e-01,1.864189497478079272e-01,-5.504244413898915500e-01,9.066730369907423370e-02
2.040800000000000125e+01,-3.998783293594989074e-01,1.974917144219695275e-01,-5.532600852101866584e-01,9.771738659371791147e-02
2.042000000000000171e+01,-3.903388350059381895e-01,2.082581697469690629e-01,-5.559193087571635550e-01,1.048438090475045381e-01
2.043199999999999861e+01,-3.805271034160803700e-01,2.187114055465816942e-01,-5.584006707160462657e-01,1.120417205475353895e-01
2.044399999999999906e+01,-3.704525330294399788e-01,2.288448566988840471e-01,-5.607028950745456264e-01,1.193063088202394734e-01
2.045599999999999952e+01,-3.601245655905334631e-01,2.386522962606552334e-01,-5.628248656195096178e-01,1.266328111124207234e-01
2.046799999999999997e+01,-3.495526646455140440e-01,2.481278268866016212e-01,-5.647656193046409756e-01,1.340165258627087630e-01
2.048000000000000043e+01,-3.387462939585035304e-01,2.572658703368599364e-01,-5.665243382276865525e-01,1.414528247533883565e-01
2.049200000000000088e+01,-3.277148959055863897e-01,2.660611548162124529e-01,-5.681003398991091302e-01,1.489371650762766341e-01
2.050400000000000134e+01,-3.164678699589575372e-01,2.745086998356323638e-01,-5.694930654287843064e-01,1.564651022642576106e-01
2.051599999999999824e+01,-3.050145514507693334e-01,2.826037982349101640e-01,-5.707020652108828473e-01,1.640323023264591562e-01
2.052799999999999869e+01,-2.933641909106983192e-01,2.903419949597478844e-01,-5.717269816602393862e-01,1.716345537751049755e-01
2.053999999999999915e+01,-2.815259344073836600e-01,2.977190621559216432e-01,-5.725675285621579791e-01,1.792677784430420918e-01
2.055199999999999960e+01,-2.695088054946597200e-01,3.047309701384112168e-01,-5.732234666616514707e-01,1.869280403656625733e-01
2.056400000000000006e+01,-2.573216895696787687e-01,3.113738538295592884e-01,-5.736945752620918881e-01,1.946115516486768005e-01
2.057600000000000051e+01,-2.449733216871708974e-01,3.176439743560013906e-01,-5.739806198535991610e-01,2.023146739865530064e-01
2.058800000000000097e+01,-2.324722791316918558e-01,3.235376756710142687e-01,-5.740813161719633406e-01,2.100339142718199714e-01
2.060000000000000142e+01,-2.198269803068518546e-01,3.290513363495632948e-01,-5.739962916133872772e-01,2.177659125982194521e-01
2.061199999999999832e+01,-2.070456917243016781e-01,3.341813171086356338e-01,-5.737250455923039727e-01,2.255074209831644250e-01
2.062399999999999878e+01,-1.941365450179955709e-01,3.389239051481404696e-01,-5.732669111888351043e-01,2.332552714005659000e-01
2.063599999999999923e+01,-1.811075659089151357e-01,3.432752570855250873e-01,-5.726210212037616820e-01,2.410063323039480787e-01
2.064799999999999969e+01,-1.679667168283598133e-01,3.472313430432606429e-01,-5.717862823851750376e-01,2.487574537847931644e-01
2.066000000000000014e+01,-1.547219543987805035e-01,3.507878952806255946e-01,-5.707613619298639307e-01,2.565054028458092494e-01
2.067200000000000060e+01,-1.413813021064889985e-01,3.539403655360122691e-01,-5.695446901923405525e-01,2.642467918758651946e-01
2.068400000000000105e+01,-1.279529372526747311e-01,3.566838958157544925e-01,-5.681344826826633110e-01,2.719780050826010043e-01
2.069600000000000151e+01,-1.144452896709856338e-01,3.590133075498454507e-01,-5.665287828231735379e-01,2.796951290549121172e-01
2.070799999999999841e+01,-1.008671478707919567e-01,3.609231136454352229e-01,-5.647255246469495837e-01,2.873938944174006527e-01
2.071999999999999886e+01,-8.722776642385225709e-02,3.624075568528312141e-01,-5.627226119384497460e-01,2.950696353627149104e-01
2.073199999999999932e+01,-7.353696686947402972e-02,3.634606759520187524e-01,-5.605180077022716700e-01,3.027172725114233853e-01
2.074399999999999977e+01,-5.980522353085086784e-02,3.640763986514945483e-01,-5.581098258527051881e-01,3.103313221088944696e-01
2.075600000000000023e+01,-4.604372575401013967e-02,3.642486570242819410e-01,-5.554964161455067106e-01,3.179059313652194962e-01
2.076800000000000068e+01,-3.226440942387262534e-02,3.639715182204291688e-01,-5.526764339103051871e-01,3.254349363564331132e-01
2.078000000000000114e+01,-1.847995319290866856e-02,3.632393206335394198e-01,-5.496488880533794141e-01,3.329119360013378381e-01
2.079200000000000159e+01,-4.703738427138383534e-03,3.620468042013161303e-01,-5.464131637200481117e-01,3.403303737828682896e-01
2.080399999999999849e+01,9.050224072235265455e-03,3.603892234850109011e-01,-5.429690193371038420e-01,3.476836184125808860e-01
2.081599999999999895e+01,2.276739363839571165e-02,3.582624337337804166e-01,-5.393165608450508630e-01,3.549650355236455557e-01
2.082799999999999940e+01,3.643281564665299538e-02,3.556629431044282530e-01,-5.354561982446441881e-01,3.621680444056858406e-01
2.083999999999999986e+01,5.003124215950330300e-02,3.525879280872920019e-01,-5.313885908338361608e-01,3.692861562688732890e-01
2.085200000000000031e+01,6.354724566758121473e-02,3.490352133165664505e-01,-5.271145876820724219e-01,3.763129930263687806e-01
2.086400000000000077e+01,7.696531575531456726e-02,3.450032206355959641e-01,-5.226351691815332989e-01,3.832422877004192374e-01
2.087600000000000122e+01,9.026993112210740522e-02,3.404908950059444273e-01,-5.179513942507394386e-01,3.900678690483964095e-01
2.088800000000000168e+01,1.034456025787107991e-01,3.354976163043245085e-01,-5.130643562816468162e-01,3.967836338116492723e-01
2.089999999999999858e+01,1.164768858483708897e-01,3.300231062301659524e-01,-5.079751494945298207e-01,4.033835101902860654e-01
2.091199999999999903e+01,1.293483657679531662e-01,3.240673386621746865e-01,-5.026848461756567854e-01,4.098614158966448207e-01
2.092399999999999949e+01,1.420446155171153912e-01,3.176304602038575453e-01,-4.971944844038431732e-01,4.162112136160067144e-01
2.093599999999999994e+01,1.545501357028392364e-01,3.107127257286503297e-01,-4.915050653282035387e-01,4.224266660624735881e-01
2.094800000000000040e+01,1.668492785506042742e-01,3.033144518109501808e-01,-4.856175587967558327e-01,4.285013921789152525e-01
2.096000000000000085e+01,1.789261622616981073e-01,2.954359892506348007e-01,-4.795329160867840557e-01,4.344288254665828464e-01
2.097200000000000131e+01,1.907645799906513284e-01,2.870777145996065149e-01,-4.732520885836125069e-01,4.402021749789310490e-01
2.098400000000000176e+01,2.023479070751525721e-01,2.782400397185785246e-01,-4.667760514336136701e-01,4.458143891835424921e-01
2.099599999999999866e+01,2.136590092751428360e-01,2.689234379013928922e-01,-4.601058314130126448e-01,4.512581226771610332e-01
2.100799999999999912e+01,2.246801539640690126e-01,2.591284849335360740e-01,-4.532425384738569818e-01,4.565257056136738378e-01
2.101999999999999957e+01,2.353929255320280634e-01,2.488559135173503134e-01,-4.461874006326416175e-01,4.616091156535424567e-01
2.103200000000000003e+01,2.457781457386801482e-01,2.381066797164910764e-01,-4.389418020448340174e-01,4.664999522463447179e-01
2.104400000000000048e+01,2.558157993958580789e-01,2.268820403772692229e-01,-4.315073242565311551e-01,4.711894130996172603e-01
2.105600000000000094e+01,2.654849655521876461e-01,2.151836408208376017e-01,-4.238857907426445415e-01,4.756682727547719147e-01
2.106800000000000139e+01,2.747637542722574655e-01,2.030136124304934286e-01,-4.160793149319563233e-01,4.799268632753989072e-01
2.107999999999999829e+01,2.836292491266667048e-01,1.903746800588899113e-01,-4.080903519862371653e-01,4.839550571488414055e-01
2.109199999999999875e+01,2.920574556139151068e-01,1.772702794373340052e-01,-3.999217546465811401e-01,4.877422526048952323e-01
2.110399999999999920e+01,3.000232559014091582e-01,1.637046849776149227e-01,-3.915768334878271251e-01,4.912773616639627416e-01
2.111599999999999966e+01,3.075003704861284382e-01,1.496831485138213902e-01,-3.830594219331063255e-01,4.945488013403135374e-01
2.112800000000000011e+01,3.144613276246386868e-01,1.352120496381564729e-01,-3.743739463763505193e-01,4.975444885442393828e-01
2.114000000000000057e+01,3.208774416600315704e-01,1.202990583412032050e-01,-3.655255017407691986e-01,5.002518393503576632e-01
2.115200000000000102e+01,3.267188016749823509e-01,1.049533106739636706e-01,-3.565199327651566996e-01,5.026577734286248322e-01
2.116400000000000148e+01,3.319542722225199416e-01,8.918559810513905506e-02,-3.473639212556525746e-01,5.047487245700529312e-01
2.117599999999999838e+01,3.365515082270948977e-01,7.300857114987004126e-02,-3.380650794657300007e-01,5.065106583809599883e-01
2.118799999999999883e+01,3.404769865060242040e-01,5.643695769091280207e-02,-3.286320496685427028e-01,5.079290983670456949e-01
2.119999999999999929e+01,3.436960567328065652e-01,3.948779619379359784e-02,-3.190746098594686164e-01,5.089891617807887902e-01
2.121199999999999974e+01,3.461730150452548282e-01,2.218068372519981998e-02,-3.094037853680383643e-01,5.096756067602514761e-01
2.122400000000000020e+01,3.478712038867644574e-01,4.538038309498846137e-03,-2.996319659629350096e-01,5.099728924411763842e-01
2.123600000000000065e+01,3.487531420501067125e-01,-1.341462530983637998e-02,-2.897730277955054001e-01,5.098652538727073136e-01
2.124800000000000111e+01,3.487806892576736928e-01,-3.164840801080572724e-02,-2.798424592413658596e-01,5.093367937036445969e-01
2.126000000000000156e+01,3.479152499443562419e-01,-5.013072893408688363e-02,-2.698574893604516189e-01,5.083715927228790177e-01
2.127199999999999847e+01,3.461180211882747271e-01,-6.882502144529110966e-02,-2.598372172988453466e-01,5.069538414237967361e-01
2.128399999999999892e+01,3.433502899342399939e-01,-8.769042640106673725e-02,-2.498027404968306553e-01,5.050679948053358181e-01
2.129599999999999937e+01,3.395737847425857048e-01,-1.066814878123770460e-01,-2.397772790450664049e-01,5.026989526061130809e-01
2.130799999999999983e+01,3.347510872330445864e-01,-1.257478572606416101e-01,-2.297862929445344815e-01,4.998322670743106100e-01
2.132000000000000028e+01,3.288461081338510117e-01,-1.448340148325997501e-01,-2.198575883801257846e-01,4.964543801834329084e-01
2.133200000000000074e+01,3.218246323381062091e-01,-1.638790158859633195e-01,-2.100214084204131970e-01,4.925528918887548402e-01
2.134400000000000119e+01,3.136549365547899870e-01,-1.828162746154628759e-01,-2.003105028216770056e-01,4.881168605553607431e-01
2.135600000000000165e+01,3.043084819588398604e-01,-2.015733971184135997e-01,-1.907601708640064564e-01,4.831371360490930855e-01
2.136799999999999855e+01,2.937606826304043350e-01,-2.200720784025387844e-01,-1.814082704114461375e-01,4.776067251397069224e-01
2.137999999999999901e+01,2.819917484673390429e-01,-2.382280794569686666e-01,-1.722951857068220904e-01,4.715211877967109833e-01
2.139199999999999946e+01,2.689875986053376078e-01,-2.559513020158048491e-01,-1.634637458363890350e-01,4.648790616434211320e-01
2.140399999999999991e+01,2.547408381498422747e-01,-2.731459798525836535e-01,-1.549590853923068223e-01,4.576823102626610407e-01
2.141600000000000037e+01,2.392517872010432867e-01,-2.897110061958446670e-01,-1.468284386965491295e-01,4.499367892202261188e-01
2.142800000000000082e+01,2.225295467595719556e-01,-3.055404169703576645e-01,-1.391208591115831172e-01,4.416527216085521790e-01
2.144000000000000128e+01,2.045930812041576452e-01,-3.205240488448005132e-01,-1.318868555416890520e-01,4.328451726545228806e-01
2.145199999999999818e+01,1.854722917587211528e-01,-3.345483892954609351e-01,-1.251779393161992215e-01,4.235345105506856944e-01
2.146399999999999864e+01,1.652090499082770059e-01,-3.474976328719662777e-01,-1.190460763289259705e-01,4.137468382585821614e-01
2.147599999999999909e+01,1.438581543492753467e-01,-3.592549533943725781e-01,-1.135430416585332114e-01,4.035143787309504182e-01
2.148799999999999955e+01,1.214881701170402867e-01,-3.697039957895245088e-01,-1.087196769577000455e-01,3.928757939748122041e-01
2.150000000000000000e+01,9.818210444170584472e-02,-3.787305836330298603e-01,-1.046250546806513498e-01,3.818764168299546014e-01
2.151200000000000045e+01,7.403787112380023905e-02,-3.862246292550987614e-01,-1.013055576709501332e-01,3.705683734891000447e-01
2.152400000000000091e+01,4.916849430493801937e-02,-3.920822226839362212e-01,-9.880388764093002429e-02,3.590105748691415632e-01
2.153600000000000136e+01,2.370200394604335403e-02,-3.962078640919949324e-01,-9.715802145117402588e-02,3.472685561786887365e-01
2.154800000000000182e+01,-2.219020432870020577e-03,-3.985167923062020168e-01,-9.640013957384126198e-02,3.354141466030348129e-01
2.155999999999999872e+01,-2.843829381543591661e-02,-3.989373500449610033e-01,-9.655555635207906107e-02,3.235249550678120922e-01
2.157199999999999918e+01,-5.478708294208752688e-02,-3.974133157040549147e-01,-9.764168624196147006e-02,3.116836635790841137e-01
2.158399999999999963e+01,-8.108588826001450478e-02,-3.939061226842749952e-01,-9.966708369950756652e-02,2.999771265835476930e-01
2.159600000000000009e+01,-1.071465453716538424e-01,-3.883968814181532059e-01,-1.026305963096946217e-01,2.884952829218518366e-01
2.160800000000000054e+01,-1.327747219539819057e-01,-3.808881173271243537e-01,-1.065206707495827965e-01,2.773298958891807775e-01
2.162000000000000099e+01,-1.577727661772098666e-01,-3.714051406634413244e-01,-1.113148489335091113e-01,2.665731461600007735e-01
2.163200000000000145e+01,-1.819428428645346874e-01,-3.599969720156189212e-01,-1.169794870520503988e-01,2.563161112588799306e-01
2.164399999999999835e+01,-2.050902754486949031e-01,-3.467367602509269786e-01,-1.234697232238421705e-01,2.466471731833654590e-01
2.165599999999999881e+01,-2.270269966850656795e-01,-3.317216474531347603e-01,-1.307297103798693017e-01,2.376504020251848093e-01
2.166799999999999926e+01,-2.475750004556212525e-01,-3.150720571399783232e-01,-1.386931202584751610e-01,2.294039673818071834e-01
2.167999999999999972e+01,-2.665696819582878963e-01,-2.969304064331110271e-01,-1.472839126617609962e-01,2.219786305371534707e-01
2.169200000000000017e+01,-2.838629548240380052e-01,-2.774592682890774653e-01,-1.564173522047131726e-01,2.154363685630582281e-01
2.170400000000000063e+01,-2.993260414274124814e-01,-2.568390345791631835e-01,-1.660012435372788808e-01,2.098291766488860066e-01
2.171600000000000108e+01,-3.128518464766089080e-01,-2.352651529160046662e-01,-1.759373462737559568e-01,2.051980873701734487e-01
2.172800000000000153e+01,-3.243568429628987393e-01,-2.129450280334590773e-01,-1.861229233503505498e-01,2.015724357716499326e-01
2.173999999999999844e+01,-3.337824223327387485e-01,-1.900946909559382558e-01,-1.964523717877167397e-01,1.989693877794869725e-01
2.175199999999999889e+01,-3.410956856198802400e-01,-1.669353453515185493e-01,-2.068188831546386164e-01,1.973937374125978861e-01
2.176399999999999935e+01,-3.462896774019069146e-01,-1.436899001148904120e-01,-2.171160824351040519e-01,1.968379664128358797e-01
2.177599999999999980e+01,-3.493830880418192231e-01,-1.205795906957312508e-01,-2.272395982556885408e-01,1.972825490863931719e-01
2.178800000000000026e+01,-3.504194701810553481e-01,-9.782077979807561607e-02,-2.370885240700683350e-01,1.986964760420903975e-01
2.180000000000000071e+01,-3.494660316689336965e-01,-7.562201203115311021e-02,-2.465667382960910203e-01,2.010379636347298937e-01
2.181200000000000117e+01,-3.466120782894000496e-01,-5.418137833020916783e-02,-2.555840608417389026e-01,2.042553115620160953e-01
2.182400000000000162e+01,-3.419671854922089471e-01,-3.368422600318097399e-02,-2.640572332091736252e-01,2.082878692847706104e-01
2.183599999999999852e+01,-3.356591790023663591e-01,-1.430123054049644953e-02,-2.719107187543629012e-01,2.130670726026950845e-01
2.184799999999999898e+01,-3.278320001841091846e-01,3.813172889635746236e-03,-2.790773281334276712e-01,2.185175145174090561e-01
2.185999999999999943e+01,-3.186435241572284638e-01,2.052201605716259120e-02,-2.854986820539733849e-01,2.245580190340786819e-01
