Frequency, Re(SMin1Min1), Im(SMin1Min1), Re(SMax1Min1), Im(SMax1Min1)
2.000000000000000000e+01,-5.000860646440338231e-01,-3.233624909427111338e-01,-3.580251848073668364e-01,-7.180751270354729376e-02
2.001200000000000045e+01,-5.047023866396248559e-01,-3.082702972995417512e-01,-3.648956716874859341e-01,-7.015579536224368640e-02
2.002400000000000091e+01,-5.088973689831776115e-01,-2.930745326826623698e-01,-3.717363685777304583e-01,-6.830197579372770944e-02
2.003600000000000136e+01,-5.126677640686783111e-01,-2.777885261516737647e-01,-3.785410314398532927e-01,-6.624727686922880776e-02
2.004799999999999827e+01,-5.160108157810160412e-01,-2.624256914584926492e-01,-3.853034977237255743e-01,-6.399313186856660229e-02
2.005999999999999872e+01,-5.189242592587262060e-01,-2.469995047570621438e-01,-3.920176943012796955e-01,-6.154117812881521737e-02
2.007199999999999918e+01,-5.214063194056486328e-01,-2.315234825981509204e-01,-3.986776449089737273e-01,-5.889325035997366314e-02
2.008399999999999963e+01,-5.234557081852198035e-01,-2.160111602901395034e-01,-4.052774770853582176e-01,-5.605137366499206297e-02
2.009600000000000009e+01,-5.250716207366787902e-01,-2.004760707033873823e-01,-4.118114285931348539e-01,-5.301775630174652976e-02
2.010800000000000054e+01,-5.262537303577489167e-01,-1.849317235918007118e-01,-4.182738533179667928e-01,-4.979478222453407460e-02
2.012000000000000099e+01,-5.270021824031285718e-01,-1.693915855010243998e-01,-4.246592266390279424e-01,-4.638500344243436102e-02
2.013200000000000145e+01,-5.273175871525792591e-01,-1.538690603281316072e-01,-4.309621502689436334e-01,-4.279113223145634970e-02
2.014399999999999835e+01,-5.272010117063283818e-01,-1.383774705928874915e-01,-4.371773565633246816e-01,-3.901603323676155338e-02
2.015599999999999881e+01,-5.266539709690080118e-01,-1.229300394755929310e-01,-4.432997123025173014e-01,-3.506271550045055030e-02
2.016799999999999926e+01,-5.256784177864046725e-01,-1.075398736714224535e-01,-4.493242219504871016e-01,-3.093432444946725424e-02
2.017999999999999972e+01,-5.242767323018356906e-01,-9.221994710566816522e-02,-4.552460303979254941e-01,-2.663413387703331137e-02
2.019200000000000017e+01,-5.224517106010838630e-01,-7.698308554905290702e-02,-4.610604251986507029e-01,-2.216553794984610359e-02
2.020400000000000063e+01,-5.202065527164435599e-01,-6.184195216674347878e-02,-4.667628383102271350e-01,-1.753204327191078965e-02
2.021600000000000108e+01,-5.175448500616283143e-01,-4.680903402927364537e-02,-4.723488473514324548e-01,-1.273726103447354527e-02
2.022800000000000153e+01,-5.144705723700090383e-01,-3.189662960818200055e-02,-4.778141763907031714e-01,-7.784899280017602494e-03
2.023999999999999844e+01,-5.109880542089992872e-01,-1.711683727387936990e-02,-4.831546962810855939e-01,-2.678755306744920808e-03
2.025199999999999889e+01,-5.071019811432931901e-01,-2.481544808001728050e-03,-4.883664245583975161e-01,2.577291761639044151e-03
2.026399999999999935e+01,-5.028173756192462207e-01,1.199758006241229309e-02,-4.934455249203588134e-01,7.979288217602142214e-03
2.027599999999999980e+01,-4.981395826418340000e-01,2.630909810664460932e-02,-4.983883063053667350e-01,1.352321280136129997e-02
2.028800000000000026e+01,-4.930742553145339158e-01,4.044180601011275467e-02,-5.031912215902913932e-01,1.920498350235929144e-02
2.030000000000000071e+01,-4.876273403110241156e-01,5.438474277905284288e-02,-5.078508659273063275e-01,2.502046411228373707e-02
2.031200000000000117e+01,-4.818050633459330379e-01,6.812719514096697571e-02,-5.123639747402011224e-01,3.096547051281703725e-02
2.032400000000000162e+01,-4.756139147099317510e-01,8.165870195571764412e-02,-5.167274214009850430e-01,3.703577668284835367e-02
2.033599999999999852e+01,-4.690606349323784285e-01,9.496905765579852221e-02,-5.209382146077861098e-01,4.322712041134500055e-02
2.034799999999999898e+01,-4.621522006324140786e-01,1.080483147377496733e-01,-5.249934954851704916e-01,4.953520870351920541e-02
2.035999999999999943e+01,-4.548958106170408744e-01,1.208867853297326406e-01,-5.288905344279870580e-01,5.595572286922957661e-02
2.037199999999999989e+01,-4.472988722821597540e-01,1.334750418632441038e-01,-5.326267277097976871e-01,6.248432328389846857e-02
2.038400000000000034e+01,-4.393689883699933851e-01,1.458039168793937024e-01,-5.361995938767363246e-01,6.911665381335366232e-02
2.039600000000000080e+01,-4.311139441336906408e-01,1.578645020025470913e-01,-5.396067699474472734e-01,7.584834589514614922e-02
2.040800000000000125e+01,-4.225416949572824432e-01,1.696481461161310489e-01,-5.428460074394245716e-01,8.267502226989911773e-02
2.042000000000000171e+01,-4.136603544765386498e-01,1.811464527771981248e-01,-5.459151682417521245e-01,8.959230035716438112e-02
2.043199999999999861e+01,-4.044781832437100988e-01,1.923512769078770113e-01,-5.488122203538481347e-01,9.659579527108531904e-02
2.044399999999999906e+01,-3.950035779766201127e-01,2.032547208031794395e-01,-5.515352335094212410e-01,1.036811224719059593e-01
2.045599999999999952e+01,-3.852450614302049825e-01,2.138491294956797462e-01,-5.540823747043917002e-01,1.108439000499505112e-01
2.046799999999999997e+01,-3.752112729262130353e-01,2.241270855186217048e-01,-5.564519036471513580e-01,1.180797506392923385e-01
2.048000000000000043e+01,-3.649109595746755086e-01,2.340814031096521419e-01,-5.586421681490499891e-01,1.253843029586928781e-01
2.049200000000000088e+01,-3.543529682186969398e-01,2.437051218980638700e-01,-5.606515994726227747e-01,1.327531929777583941e-01
2.050400000000000134e+01,-3.435462381322426095e-01,2.529915001189036450e-01,-5.624787076546788889e-01,1.401820647064818681e-01
2.051599999999999824e+01,-3.324997944989189214e-01,2.619340073977015071e-01,-5.641220768210137848e-01,1.476665706064734795e-01
2.052799999999999869e+01,-3.212227426982063871e-01,2.705263171499255326e-01,-5.655803605092106778e-01,1.552023716222402649e-01
2.053999999999999915e+01,-3.097242634243587700e-01,2.787622986395034141e-01,-5.668522770157455870e-01,1.627851368307848823e-01
2.055199999999999960e+01,-2.980136086619560309e-01,2.866360087411161661e-01,-5.679366047834334408e-01,1.704105427077312607e-01
2.056400000000000006e+01,-2.861000985413041375e-01,2.941416834511798029e-01,-5.688321778451486121e-01,1.780742720078938024e-01
2.057600000000000051e+01,-2.739931190961167329e-01,3.012737291928140881e-01,-5.695378813397342643e-01,1.857720122579542832e-01
2.058800000000000097e+01,-2.617021209454550856e-01,3.080267139605141202e-01,-5.700526471161103670e-01,1.934994538585169122e-01
2.060000000000000142e+01,-2.492366189216221328e-01,3.143953583507624328e-01,-5.703754494417812015e-01,2.012522877923777764e-01
2.061199999999999832e+01,-2.366061926656708725e-01,3.203745265255125707e-01,-5.705053008322578112e-01,2.090262029353275319e-01
2.062399999999999878e+01,-2.238204882122858674e-01,3.259592171563344687e-01,-5.704412480183850276e-01,2.168168829652566132e-01
2.063599999999999923e+01,-2.108892205862439306e-01,3.311445543980757744e-01,-5.701823680691412433e-01,2.246200028646646862e-01
2.064799999999999969e+01,-1.978221774330616578e-01,3.359257789422848139e-01,-5.697277646882791258e-01,2.324312250110910916e-01
2.066000000000000014e+01,-1.846292237072792719e-01,3.402982392022387281e-01,-5.690765647040928465e-01,2.402461948491982913e-01
2.067200000000000060e+01,-1.713203074426486727e-01,3.442573826834334771e-01,-5.682279147727545832e-01,2.480605361375707585e-01
2.068400000000000105e+01,-1.579054666295494347e-01,3.477987475957804997e-01,-5.671809783170188579e-01,2.558698457625213085e-01
2.069600000000000151e+01,-1.443948372261044111e-01,3.509179547665671195e-01,-5.659349327236582461e-01,2.636696881104617085e-01
2.070799999999999841e+01,-1.307986623307434981e-01,3.536106999165542497e-01,-5.644889668248360692e-01,2.714555889896591023e-01
2.071999999999999886e+01,-1.171273025452566202e-01,3.558727463654648981e-01,-5.628422786907292252e-01,2.792230290915029833e-01
2.073199999999999932e+01,-1.033912475588411733e-01,3.576999182375558695e-01,-5.609940737630917384e-01,2.869674369807108660e-01
2.074399999999999977e+01,-8.960112898486445598e-02,3.590880942431572409e-01,-5.589435633621688826e-01,2.946841816033881067e-01
2.075600000000000023e+01,-7.576773448350918039e-02,3.600332021178727082e-01,-5.566899636024379427e-01,3.023685643012874458e-01
2.076800000000000068e+01,-6.190202320458618179e-02,3.605312138078971551e-01,-5.542324947560504089e-01,3.100158103202902415e-01
2.078000000000000114e+01,-4.801514258583123446e-02,3.605781414974075783e-01,-5.515703811067049767e-01,3.176210598009238106e-01
2.079200000000000159e+01,-3.411844654276034727e-02,3.601700345825666894e-01,-5.487028513409136776e-01,3.251793582387075277e-01
2.080399999999999849e+01,-2.022351508654917501e-02,3.593029777062372032e-01,-5.456291395283577872e-01,3.326856464023789095e-01
2.081599999999999895e+01,-6.342175406317258728e-03,3.579730899782248565e-01,-5.423484867482325500e-01,3.401347496985968610e-01
2.082799999999999940e+01,7.513475548372037377e-03,3.561765255178409029e-01,-5.388601434242520360e-01,3.475213669725957244e-01
2.083999999999999986e+01,2.133104695052340585e-02,3.539094754688196787e-01,-5.351633724372605316e-01,3.548400587356758673e-01
2.085200000000000031e+01,3.509782841210899035e-02,3.511681716513566642e-01,-5.312574530913477533e-01,3.620852348122096109e-01
2.086400000000000077e+01,4.880076270523585336e-02,3.479488920322481582e-01,-5.271416860168887109e-01,3.692511414013841531e-01
2.087600000000000122e+01,6.242641686416344066e-02,3.442479682119594653e-01,-5.228153991021566860e-01,3.763318475520794903e-01
2.088800000000000168e+01,7.596095165061954313e-02,3.400617951470106815e-01,-5.182779545540514565e-01,3.833212310533693490e-01
2.089999999999999858e+01,8.939008937310151393e-02,3.353868433474572752e-01,-5.135287571981193011e-01,3.902129637481878133e-01
2.091199999999999903e+01,1.026990800614173555e-01,3.302196738124347775e-01,-5.085672641383779391e-01,3.970004962839631113e-01
2.092399999999999949e+01,1.158726660108072987e-01,3.245569559920051805e-01,-5.033929959085620132e-01,4.036770423215634840e-01
2.093599999999999994e+01,1.288950447264498589e-01,3.183954890906079416e-01,-4.980055492581905718e-01,4.102355622331343987e-01
2.094800000000000040e+01,1.417498303189882736e-01,3.117322270566350584e-01,-4.924046117293800484e-01,4.166687463303129224e-01
2.096000000000000085e+01,1.544200134260124146e-01,3.045643076336784216e-01,-4.865899781934703294e-01,4.229689976774021476e-01
2.097200000000000131e+01,1.668879197635494416e-01,2.968890858819641654e-01,-4.805615695302287715e-01,4.291284145595203325e-01
2.098400000000000176e+01,1.791351674464541355e-01,2.887041726130827324e-01,-4.743194536465762390e-01,4.351387726939263123e-01
2.099599999999999866e+01,1.911426232579348516e-01,2.800074782171880772e-01,-4.678638690461901506e-01,4.409915072939835090e-01
2.100799999999999912e+01,2.028903580973245302e-01,2.707972623989589600e-01,-4.611952511758403705e-01,4.466776951200582269e-01
2.101999999999999957e+01,2.143576018924666371e-01,2.610721903763542628e-01,-4.543142617886152812e-01,4.521880366803552875e-01
2.103200000000000003e+01,2.255226983302294763e-01,2.508313961337232390e-01,-4.472218215777832295e-01,4.575128387779909822e-01
2.104400000000000048e+01,2.363630598364312718e-01,2.400745533575454893e-01,-4.399191463477052366e-01,4.626419976387333155e-01
2.105600000000000094e+01,2.468551233266531586e-01,2.288019547175717261e-01,-4.324077869990800016e-01,4.675649828975905198e-01
2.106800000000000139e+01,2.569743073531456368e-01,2.170146001871618713e-01,-4.246896736143482287e-01,4.722708227722257068e-01
2.107999999999999829e+01,2.666949713918357334e-01,2.047142951223638041e-01,-4.167671639343005774e-01,4.767480908076277002e-01
2.109199999999999875e+01,2.759903781488597385e-01,1.919037588374851722e-01,-4.086430965177605956e-01,4.809848946401472092e-01
2.110399999999999920e+01,2.848326599193339859e-01,1.785867444230876955e-01,-4.003208488713921320e-01,4.849688673003729189e-01
2.111599999999999966e+01,2.931927902039258016e-01,1.647681705469017654e-01,-3.918044008244914167e-01,4.886871616539302243e-01
2.112800000000000011e+01,3.010405619819392919e-01,1.504542659557189244e-01,-3.830984034024714213e-01,4.921264486672926042e-01
2.114000000000000057e+01,3.083445742543824974e-01,1.356527273518287613e-01,-3.742082534202307298e-01,4.952729202824346921e-01
2.115200000000000102e+01,3.150722287070220617e-01,1.203728912459362393e-01,-3.651401739703647453e-01,4.981122977894013037e-01
2.116400000000000148e+01,3.211897386017105727e-01,1.046259202833342422e-01,-3.559013009183347731e-01,5.006298466992799012e-01
2.117599999999999838e+01,3.266621522832542368e-01,8.842500439431028036e-02,-3.464997754340105041e-01,5.028103992407537692e-01
2.118799999999999883e+01,3.314533939866697865e-01,7.178557692512745059e-02,-3.369448424828205835e-01,5.046383857299862052e-01
2.119999999999999929e+01,3.355263249422599792e-01,5.472554565358680317e-02,-3.272469550662376880e-01,5.060978761938902393e-01
2.121199999999999974e+01,3.388428280982478391e-01,3.726553827279700803e-02,-3.174178838359692501e-01,5.071726337579370858e-01
2.122400000000000020e+01,3.413639201049204486e-01,1.942916152830384546e-02,-3.074708315049359264e-01,5.078461814373854688e-01
2.123600000000000065e+01,3.430498945201419514e-01,1.243272705433854904e-03,-2.974205512359706649e-01,5.081018840898822164e-01
2.124800000000000111e+01,3.438605004898412920e-01,-1.726173842524521621e-02,-2.872834679020256909e-01,5.079230473909107646e-01
2.126000000000000156e+01,3.437551614112083764e-01,-3.605165979696926815e-02,-2.770778007753986749e-01,5.072930357729170670e-01
2.127199999999999847e+01,3.426932382788187570e-01,-5.508816278455292564e-02,-2.668236858149429791e-01,5.061954113136064581e-01
2.128399999999999892e+01,3.406343425178759432e-01,-7.432850785514659442e-02,-2.565432952774089337e-01,5.046140955561790875e-01
2.129599999999999937e+01,3.375387030920331544e-01,-9.372525557827313114e-02,-2.462609518820555454e-01,5.025335561792568795e-01
2.130799999999999983e+01,3.333675924981083782e-01,-1.132259896546549821e-01,-2.360032342087489132e-01,4.999390202897731061e-01
2.132000000000000028e+01,3.280838158833825902e-01,-1.327730599586344762e-01,-2.257990694153611810e-01,4.968167158689271168e-01
2.133200000000000074e+01,3.216522668951821706e-01,-1.523033550294511651e-01,-2.156798087304862832e-01,4.931541425384509680e-01
2.134400000000000119e+01,3.140405529455408962e-01,-1.717481149624077164e-01,-2.056792805286058734e-01,4.889403723098580401e-01
2.135600000000000165e+01,3.052196912926729566e-01,-1.910327971984356887e-01,-1.958338151493875801e-01,4.841663803109390596e-01
2.136799999999999855e+01,2.951648756537474938e-01,-2.100770092289067914e-01,-1.861822350111876634e-01,4.788254046308133005e-01
2.137999999999999901e+01,2.838563109231418413e-01,-2.287945236415792616e-01,-1.767658030299040783e-01,4.729133333699185870e-01
2.139199999999999946e+01,2.712801109408737865e-01,-2.470933921317995385e-01,-1.676281219362001085e-01,4.664291157128968579e-01
2.140399999999999991e+01,2.574292511177422305e-01,-2.648761759679242322e-01,-1.588149768436115383e-01,4.593751923575049023e-01
2.141600000000000037e+01,2.423045640830699676e-01,-2.820403107868217907e-01,-1.503741134228210874e-01,4.517579389411655044e-01
2.142800000000000082e+01,2.259157624167834610e-01,-2.984786233436551584e-01,-1.423549443548035032e-01,4.435881142340390437e-01
2.144000000000000128e+01,2.082824680424074926e-01,-3.140800167767775486e-01,-1.348081774426589385e-01,4.348813028593124241e-01
2.145199999999999818e+01,1.894352231250576168e-01,-3.287303388993780273e-01,-1.277853599319560274e-01,4.256583402267993810e-01
2.146399999999999864e+01,1.694164525311810110e-01,-3.423134448320454548e-01,-1.213383352874413956e-01,4.159457053202600396e-01
2.147599999999999909e+01,1.482813433202423981e-01,-3.547124608116040689e-01,-1.155186109490987378e-01,4.057758650846460258e-01
2.148799999999999955e+01,1.260986026699786877e-01,-3.658112501693805418e-01,-1.103766384658060457e-01,3.951875525651637466e-01
2.150000000000000000e+01,1.029510524596774779e-01,-3.754960752577061189e-01,-1.059610108676532214e-01,3.842259598262993681e-01
2.151200000000000045e+01,7.893601686180819199e-02,-3.836574406074656496e-01,-1.023175861288679045e-01,3.729428262096005642e-01
2.152400000000000091e+01,5.416545914869921180e-02,-3.901920930315403435e-01,-9.948854997800933575e-02,3.613964028599660483e-01
2.153600000000000136e+01,2.876582591470695435e-02,-3.950051440953347703e-01,-9.751143595506685247e-02,3.496512758323303549e-01
2.154800000000000182e+01,2.877561389332791535e-03,-3.980122698446144636e-01,-9.641812525875309570e-02,3.377780326202574068e-01
2.155999999999999872e+01,-2.334573829562365879e-02,-3.991419325354518821e-01,-9.623385327736615202e-02,3.258527607047057018e-01
2.157199999999999918e+01,-4.973855105336944665e-02,-3.983375600833887198e-01,-9.697625341562896017e-02,3.139563717060125936e-01
2.158399999999999963e+01,-7.612504256344218567e-02,-3.955596118360673596e-01,-9.865447155905703036e-02,3.021737508383439130e-01
2.159600000000000009e+01,-1.023210604603581181e-01,-3.907874548744753040e-01,-1.012683859064243963e-01,2.905927384059682206e-01
2.160800000000000054e+01,-1.281364851957710049e-01,-3.840209740850304976e-01,-1.048079666441878582e-01,2.793029577246324280e-01
2.162000000000000099e+01,-1.533778965515189552e-01,-3.752818422777015606e-01,-1.092528078121373508e-01,2.683945116741475179e-01
2.163200000000000145e+01,-1.778514978833791726e-01,-3.646143839664154340e-01,-1.145718596152520835e-01,2.579565775858261301e-01
2.164399999999999835e+01,-2.013662248015313516e-01,-3.520859780715767662e-01,-1.207233834207540185e-01,2.480759367932680315e-01
2.165599999999999881e+01,-2.237369523511071601e-01,-3.377869603826347822e-01,-1.276551439561703361e-01,2.388354803860662789e-01
2.166799999999999926e+01,-2.447877059472451100e-01,-3.218300053938754068e-01,-1.353048441740568875e-01,2.303127360233676868e-01
2.167999999999999972e+01,-2.643547772199389967e-01,-3.043489880269553693e-01,-1.436007983978319080e-01,2.225784617236289120e-01
2.169200000000000017e+01,-2.822896470741499964e-01,-2.854973474528788024e-01,-1.524628293421083913e-01,2.156953511475597773e-01
2.170400000000000063e+01,-2.984616247988348126e-01,-2.654459962577160881e-01,-1.618033650917131139e-01,2.097168910262963704e-01
2.171600000000000108e+01,-3.127601236456160061e-01,-2.443808370952907372e-01,-1.715287037923159952e-01,2.046864052557115787e-01
2.172800000000000153e+01,-3.250965091964315157e-01,-2.224999644170481128e-01,-1.815404072368035082e-01,2.006363121727658405e-01
2.173999999999999844e+01,-3.354054759402130270e-01,-2.000106398238085670e-01,-1.917367801690264550e-01,1.975876122013995873e-01
2.175199999999999889e+01,-3.436459284197479480e-01,-1.771261353848910536e-01,-2.020143902303662420e-01,1.955496130586516224e-01
2.176399999999999935e+01,-3.498013646135152421e-01,-1.540625396917668921e-01,-2.122695840988822469e-01,1.945198897411815897e-01
2.177599999999999980e+01,-3.538797794348183534e-01,-1.310356166708223913e-01,-2.223999583663460733e-01,1.944844672353490955e-01
2.178800000000000026e+01,-3.559131240754940806e-01,-1.082577978865085638e-01,-2.323057487356863515e-01,1.954182058894443352e-01
2.180000000000000071e+01,-3.559563713778147731e-01,-8.593537614758504917e-02,-2.418911077339170324e-01,1.972853630978204376e-01
2.181200000000000117e+01,-3.540862478072609454e-01,-6.426595281587951791e-02,-2.510652487721447557e-01,2.000403006528745087e-01
2.182400000000000162e+01,-3.503996986060948782e-01,-4.343617452304831400e-02,-2.597434424657266705e-01,2.036283049285950164e-01
2.183599999999999852e+01,-3.450121543672342583e-01,-2.361977821168916372e-02,-2.678478590994919917e-01,2.079864869130175764e-01
2.184799999999999898e+01,-3.380556649147844483e-01,-4.975947595093194870e-03,-2.753082584976571101e-01,2.130447308134146289e-01
2.185999999999999943e+01,-3.296769605778038792e-01,1.235202985239847867e-02,-2.820625349446280739e-01,2.187266632219482254e-01
