Frequency, Re(SMin1Min1), Im(SMin1Min1), Re(SMax1Min1), Im(SMax1Min1)
2.000000000000000000e+01,-4.698843972877017605e-01,-2.731330406366714314e-01,-3.771941651345236957e-01,-4.857168415833975489e-02
2.001200000000000045e+01,-4.726996258238598259e-01,-2.564591865421694816e-01,-3.845092020507362984e-01,-4.577615536831928372e-02
2.002400000000000091e+01,-4.749683511754956289e-01,-2.397076754380173536e-01,-3.917664607823758693e-01,-4.273091471890674842e-02
2.003600000000000136e+01,-4.766862409409377555e-01,-2.228980644822840806e-01,-3.989570733626066623e-01,-3.943710202623523786e-02
2.004799999999999827e+01,-4.778497209340168417e-01,-2.060501288480745263e-01,-4.060721908948134451e-01,-3.589619729407637211e-02
2.005999999999999872e+01,-4.784559837837085716e-01,-1.891838280249149018e-01,-4.131029984505983910e-01,-3.211001945149118131e-02
2.007199999999999918e+01,-4.785029956705048049e-01,-1.723192719154843233e-01,-4.200407297862174816e-01,-2.808072428034904047e-02
2.008399999999999963e+01,-4.779895012049298342e-01,-1.554766868572207972e-01,-4.268766818215495307e-01,-2.381080155311658328e-02
2.009600000000000009e+01,-4.769150264641220938e-01,-1.386763816972020058e-01,-4.336022288276351055e-01,-1.930307140586247361e-02
2.010800000000000054e+01,-4.752798802126801392e-01,-1.219387140463730063e-01,-4.402088362712111014e-01,-1.456067997575746266e-02
2.012000000000000099e+01,-4.730851533440590395e-01,-1.052840568360865620e-01,-4.466880742674189664e-01,-9.587094336458212851e-03
2.013200000000000145e+01,-4.703327165885545780e-01,-8.873276529602242002e-02,-4.530316305949478872e-01,-4.386096768613386397e-03
2.014399999999999835e+01,-4.670252165432386415e-01,-7.230514446767581649e-02,-4.592313232313053328e-01,1.038221593713571991e-03
2.015599999999999881e+01,-4.631660700880826376e-01,-5.602141736207075229e-02,-4.652791123696241038e-01,6.681467696684639627e-03
2.016799999999999926e+01,-4.587594572609057786e-01,-3.990169386412908276e-02,-4.711671118823538285e-01,1.253895403342380338e-02
2.017999999999999972e+01,-4.538103126714490565e-01,-2.396594047900300201e-02,-4.768876002014305615e-01,1.860570659443202407e-02
2.019200000000000017e+01,-4.483243155420477133e-01,-8.233951008258674764e-03,-4.824330305888689385e-01,2.487647325001781512e-02
2.020400000000000063e+01,-4.423078784687750620e-01,7.274681764424625018e-03,-4.877960407762644279e-01,3.134573251136789362e-02
2.021600000000000108e+01,-4.357681350025601197e-01,2.254059330694144561e-02,-4.929694619563733671e-01,3.800770261549221013e-02
2.022800000000000153e+01,-4.287129261547937276e-01,3.754467342977505645e-02,-4.979463271146442604e-01,4.485635087830411316e-02
2.023999999999999844e+01,-4.211507859360351658e-01,5.226809118159286838e-02,-5.027198786933908536e-01,5.188540325952963050e-02
2.025199999999999889e+01,-4.130909260397064298e-01,6.669231850639759096e-02,-5.072835755860592988e-01,5.908835408299668857e-02
2.026399999999999935e+01,-4.045432197853565670e-01,8.079915262888032190e-02,-5.116310994638209042e-01,6.645847585601236118e-02
2.027599999999999980e+01,-3.955181854376059736e-01,9.457073714477330639e-02,-5.157563604414474590e-01,7.398882913222995517e-02
2.028800000000000026e+01,-3.860269690179609081e-01,1.079895818028570459e-01,-5.196535020940253879e-01,8.167227236331284224e-02
2.030000000000000071e+01,-3.760813267267050231e-01,1.210385809753965480e-01,-5.233169058406057506e-01,8.950147168606292780e-02
2.031200000000000117e+01,-3.656936070914556525e-01,1.337010308237217004e-01,-5.267411947152357277e-01,9.746891059335675844e-02
2.032400000000000162e+01,-3.548767329575504004e-01,1.459606451755211809e-01,-5.299212365500594046e-01,1.055668994392090221e-01
2.033599999999999852e+01,-3.436441834332593648e-01,1.578015701401113413e-01,-5.328521465991842287e-01,1.137875847305884203e-01
2.034799999999999898e+01,-3.320099758999388029e-01,1.692083974974356309e-01,-5.355292896358758714e-01,1.221229581611907034e-01
2.035999999999999943e+01,-3.199886481937559424e-01,1.801661769057066598e-01,-5.379482815592347977e-01,1.305648653451637609e-01
2.037199999999999989e+01,-3.075952410613083665e-01,1.906604269816490616e-01,-5.401049905499674120e-01,1.391050142119364952e-01
2.038400000000000034e+01,-2.948452809867551094e-01,2.006771453157918106e-01,-5.419955378179908134e-01,1.477349830265067832e-01
2.039600000000000080e+01,-2.817547634826191860e-01,2.102028174935839100e-01,-5.436162979875847068e-01,1.564462280030949615e-01
2.040800000000000125e+01,-2.683401369304840856e-01,2.192244252009723227e-01,-5.449638991684974121e-01,1.652300904837146478e-01
2.042000000000000171e+01,-2.546182870513398200e-01,2.277294535005619236e-01,-5.460352227638821665e-01,1.740778036570597709e-01
2.043199999999999861e+01,-2.406065220783702163e-01,2.357058973715834560e-01,-5.468274030681515852e-01,1.829804987970821972e-01
2.044399999999999906e+01,-2.263225586975098902e-01,2.431422676135562011e-01,-5.473378267098412131e-01,1.919292110047758071e-01
2.045599999999999952e+01,-2.117845088133197828e-01,2.500275962197528457e-01,-5.475641319963099329e-01,2.009148844408657764e-01
2.046799999999999997e+01,-1.970108671892619456e-01,2.563514413324484154e-01,-5.475042082186309944e-01,2.099283770415542594e-01
2.048000000000000043e+01,-1.820205000029198050e-01,2.621038918972664056e-01,-5.471561949763218413e-01,2.189604647138372329e-01
2.049200000000000088e+01,-1.668326343474805795e-01,2.672755721389079575e-01,-5.465184815826251707e-01,2.280018450115409989e-01
2.050400000000000134e+01,-1.514668487013391684e-01,2.718576459850656213e-01,-5.455897066119054228e-01,2.370431402978625257e-01
2.051599999999999824e+01,-1.359430643777713721e-01,2.758418215693766440e-01,-5.443687576513625004e-01,2.460749004049868072e-01
2.052799999999999869e+01,-1.202815379563205028e-01,2.792203559479321529e-01,-5.428547713196714142e-01,2.550876048062281631e-01
2.053999999999999915e+01,-1.045028546869040259e-01,2.819860601669680888e-01,-5.410471336153651611e-01,2.640716643211019621e-01
2.055199999999999960e+01,-8.862792284638185136e-02,2.841323048221406355e-01,-5.389454806577561596e-01,2.730174223789136878e-01
2.056400000000000006e+01,-7.267796901593774617e-02,2.856530262519543228e-01,-5.365496998829434316e-01,2.819151558716149197e-01
2.057600000000000051e+01,-5.667453423547796909e-02,2.865427335096437100e-01,-5.338599317569729941e-01,2.907550756321063412e-01
2.058800000000000097e+01,-4.063947097879803960e-02,2.867965162590034867e-01,-5.308765720674890609e-01,2.995273265796913331e-01
2.060000000000000142e+01,-2.459494088021679445e-02,2.864100537402347602e-01,-5.276002748542227838e-01,3.082219875800919495e-01
2.061199999999999832e+01,-8.563413129815728234e-03,2.853796249518909534e-01,-5.240319560373706276e-01,3.168290710733221438e-01
2.062399999999999878e+01,7.432336559787915131e-03,2.837021201942684923e-01,-5.201727978013204190e-01,3.253385225288281668e-01
2.063599999999999923e+01,2.336922652687938376e-02,2.813750541181684328e-01,-5.160242537892411052e-01,3.337402197935485093e-01
2.064799999999999969e+01,3.922386940161955854e-02,2.783965804206465777e-01,-5.115880551616903693e-01,3.420239724051513108e-01
2.066000000000000014e+01,5.497257215784200068e-02,2.747655083261383857e-01,-5.068662175696464489e-01,3.501795209493831496e-01
2.067200000000000060e+01,7.059133613583143396e-02,2.704813209870920443e-01,-5.018610490890836884e-01,3.581965365475009988e-01
2.068400000000000105e+01,8.605585721373897046e-02,2.655441959327770052e-01,-4.965751591604247728e-01,3.660646205669830233e-01
2.069600000000000151e+01,1.013415263235232927e-01,2.599550276881644195e-01,-4.910114685717547611e-01,3.737733046561722561e-01
2.070799999999999841e+01,1.164234305262431407e-01,2.537154526765175167e-01,-4.851732205195860015e-01,3.813120512112076477e-01
2.071999999999999886e+01,1.312763548811929082e-01,2.468278765093825655e-01,-4.790639927750593996e-01,3.886702543915014907e-01
2.073199999999999932e+01,1.458747853635556924e-01,2.392955037559131859e-01,-4.726877109767584351e-01,3.958372418080419730e-01
2.074399999999999977e+01,1.601929131062532208e-01,2.311223702695010818e-01,-4.660486630635592431e-01,4.028022770170774369e-01
2.075600000000000023e+01,1.742046402628584234e-01,2.223133781335555614e-01,-4.591515148522443135e-01,4.095545629599293691e-01
2.076800000000000068e+01,1.878835878102102230e-01,2.128743332694535140e-01,-4.520013267546604818e-01,4.160832464980048773e-01
2.078000000000000114e+01,2.012031056312165722e-01,2.028119857280950289e-01,-4.446035716180396502e-01,4.223774242002357737e-01
2.079200000000000159e+01,2.141362852401935135e-01,1.921340726617925820e-01,-4.369641536595315623e-01,4.284261495481712645e-01
2.080399999999999849e+01,2.266559755346521654e-01,1.808493639451546064e-01,-4.290894284519660151e-01,4.342184417315801404e-01
2.081599999999999895e+01,2.387348019784547026e-01,1.689677103818421899e-01,-4.209862239021901487e-01,4.397432962146005098e-01
2.082799999999999940e+01,2.503451896411954536e-01,1.565000943985086213e-01,-4.126618621460569347e-01,4.449896972589112987e-01
2.083999999999999986e+01,2.614593905374164584e-01,1.434586830872382202e-01,-4.041241822649180304e-01,4.499466325960435054e-01
2.085200000000000031e+01,2.720495157258238650e-01,1.298568834136493433e-01,-3.953815637075885903e-01,4.546031104453510663e-01
2.086400000000000077e+01,2.820875726429762920e-01,1.157093993588339809e-01,-3.864429502787887216e-01,4.589481790772242387e-01
2.087600000000000122e+01,2.915455081569279239e-01,1.010322907096370543e-01,-3.773178745302516734e-01,4.629709491224479057e-01
2.088800000000000168e+01,3.003952578334710410e-01,8.584303315314976979e-02,-3.680164823638702454e-01,4.666606188278452638e-01
2.089999999999999858e+01,3.086088019100649005e-01,7.016057926783314524e-02,-3.585495576275974927e-01,4.700065024552060877e-01
2.091199999999999903e+01,3.161582284693306155e-01,5.400541993524797524e-02,-3.489285464542524751e-01,4.729980620144278447e-01
2.092399999999999949e+01,3.230158042941700391e-01,3.739964562349901156e-02,-3.391655810613097288e-01,4.756249425125625985e-01
2.093599999999999994e+01,3.291540538692009910e-01,2.036700691597421661e-02,-3.292735026960055267e-01,4.778770108874481615e-01
2.094800000000000040e+01,3.345458469668977641e-01,2.932973577914248318e-03,-3.192658833754275505e-01,4.797443987774017704e-01
2.096000000000000085e+01,3.391644952208265340e-01,-1.487520863112084223e-02,-3.091570460355989591e-01,4.812175492566607149e-01
2.097200000000000131e+01,3.429838580412096216e-01,-3.302846427753065167e-02,-2.989620826677130139e-01,4.822872676392706004e-01
2.098400000000000176e+01,3.459784581687424532e-01,-5.149583867330797399e-02,-2.886968699839940200e-01,4.829447764216620587e-01
2.099599999999999866e+01,3.481236070900177171e-01,-7.024445344946771141e-02,-2.783780821209254075e-01,4.831817743956602351e-01
2.100799999999999912e+01,3.493955404510151186e-01,-8.923946842394527013e-02,-2.680231998545298255e-01,4.829904999189275627e-01
2.101999999999999957e+01,3.497715635030561598e-01,-1.084440509870613911e-01,-2.576505157720204719e-01,4.823637982784622080e-01
2.103200000000000003e+01,3.492302064977280684e-01,-1.278193543047297931e-01,-2.472791348172235781e-01,4.812951930246949783e-01
2.104400000000000048e+01,3.477513898130521475e-01,-1.473245057080488918e-01,-2.369289696052304939e-01,4.797789610888261169e-01
2.105600000000000094e+01,3.453165984425314305e-01,-1.669166066958764905e-01,-2.266207298855750785e-01,4.778102114245170173e-01
2.106800000000000139e+01,3.419090653119231660e-01,-1.865507460209960555e-01,-2.163759055244329210e-01,4.753849668371674664e-01
2.107999999999999829e+01,3.375139627063551973e-01,-2.061800273576245290e-01,-2.062167423761419593e-01,4.725002485803266317e-01
2.109199999999999875e+01,3.321186008939651657e-01,-2.257556130550685269e-01,-1.961662104241100879e-01,4.691541632100894033e-01
2.110399999999999920e+01,3.257126328235478430e-01,-2.452267854657620150e-01,-1.862479635924056409e-01,4.653459910956939116e-01
2.111599999999999966e+01,3.182882635551053663e-01,-2.645410272929821782e-01,-1.764862906630168538e-01,4.610762758892614221e-01
2.112800000000000011e+01,3.098404628571094777e-01,-2.836441223304127512e-01,-1.669060567815021934e-01,4.563469141614698854e-01
2.114000000000000057e+01,3.003671791765348265e-01,-3.024802778603399300e-01,-1.575326350961131772e-01,4.511612443148214635e-01
2.115200000000000102e+01,2.898695529620856082e-01,-3.209922698368486982e-01,-1.483918281534314931e-01,4.455241337943746105e-01
2.116400000000000148e+01,2.783521271029426591e-01,-3.391216118034395266e-01,-1.395097787673946210e-01,4.394420635299426947e-01
2.117599999999999838e+01,2.658230520408846886e-01,-3.568087482801077792e-01,-1.309128701882736612e-01,4.329232084666027047e-01
2.118799999999999883e+01,2.522942829294348432e-01,-3.739932731033328572e-01,-1.226276155231548759e-01,4.259775129749173717e-01
2.119999999999999929e+01,2.377817660569546687e-01,-3.906141729147729613e-01,-1.146805364987233539e-01,4.186167598817079893e-01
2.121199999999999974e+01,2.223056116283310957e-01,-4.066100956739313599e-01,-1.070980318087108168e-01,4.108546318294797883e-01
2.122400000000000020e+01,2.058902499198291824e-01,-4.219196437202509253e-01,-9.990623545009480466e-02,4.027067636609542034e-01
2.123600000000000065e+01,1.885645677902889339e-01,-4.364816905375601408e-01,-9.313086562055000739e-02,3.941907845370505870e-01
2.124800000000000111e+01,1.703620225557190282e-01,-4.502357199857113246e-01,-8.679706492104936888e-02,3.853263485346190009e-01
2.126000000000000156e+01,1.513207303185826191e-01,-4.631221863701016073e-01,-8.092923277719188402e-02,3.761351525358690440e-01
2.127199999999999847e+01,1.314835259914765297e-01,-4.750828933304710455e-01,-7.555085115554931174e-02,3.666409403157298019e-01
2.128399999999999892e+01,1.108979924692810315e-01,-4.860613891583785429e-01,-7.068430480123846782e-02,3.568694918562900220e-01
2.129599999999999937e+01,8.961645668391275688e-02,-4.960033758116106917e-01,-6.635069735386786571e-02,3.468485970678783503e-01
2.130799999999999983e+01,6.769595061783298395e-02,-5.048571285982981216e-01,-6.256966480438722056e-02,3.366080132715570938e-01
2.132000000000000028e+01,4.519813575074153877e-02,-5.125739232682150481e-01,-5.935918782892991852e-02,3.261794059941452439e-01
2.133200000000000074e+01,2.218918985779711958e-02,-5.191084670888732600e-01,-5.673540457111872493e-02,3.155962728384613669e-01
2.134400000000000119e+01,-1.260344445964268600e-03,-5.244193304133483169e-01,-5.471242543604009495e-02,3.048938504112106984e-01
2.135600000000000165e+01,-2.507574952945557795e-02,-5.284693752778241160e-01,-5.330215140250271072e-02,2.941090045097238259e-01
2.136799999999999855e+01,-4.917836056829188313e-02,-5.312261777097817550e-01,-5.251409725196742873e-02,2.832801039758843231e-01
2.137999999999999901e+01,-7.348583054636580181e-02,-5.326624406893074593e-01,-5.235522095110775598e-02,2.724468788085204762e-01
2.139199999999999946e+01,-9.791243122783058195e-02,-5.327563950886633481e-01,-5.282976021096933567e-02,2.616502632703871511e-01
2.140399999999999991e+01,-1.223693885993075853e-01,-5.314921864162173160e-01,-5.393907698243267240e-02,2.509322248168178171e-01
2.141600000000000037e+01,-1.467652511228373369e-01,-5.288602458004298956e-01,-5.568151034174782105e-02,2.403355796938291822e-01
2.142800000000000082e+01,-1.710062891538962071e-01,-5.248576443504554545e-01,-5.805223788165398552e-02,2.299037959857750946e-01
2.144000000000000128e+01,-1.949969241070034776e-01,-5.194884307949320101e-01,-6.104314536802127322e-02,2.196807847184851226e-01
2.145199999999999818e+01,-2.186401864374570292e-01,-5.127639530912134758e-01,-6.464270406942387859e-02,2.097106793246318879e-01
2.146399999999999864e+01,-2.418382022946562182e-01,-5.047031654615297125e-01,-6.883585484439756763e-02,2.000376033359642647e-01
2.147599999999999909e+01,-2.644927098311248281e-01,-4.953329229818627111e-01,-7.360389781279527699e-02,1.907054255658562902e-01
2.148799999999999955e+01,-2.865056076585887901e-01,-4.846882663354398768e-01,-7.892438628734076145e-02,1.817575012718734284e-01
2.150000000000000000e+01,-3.077795398546259720e-01,-4.728126995343541750e-01,-8.477102365349051261e-02,1.732363968340842053e-01
2.151200000000000045e+01,-3.282185242534216840e-01,-4.597584631705384228e-01,-9.111356212726896830e-02,1.651835943505639004e-01
2.152400000000000091e+01,-3.477286334893001651e-01,-4.455868049100834560e-01,-9.791770287327349054e-02,1.576391712502819842e-01
2.153600000000000136e+01,-3.662187413531501901e-01,-4.303682472857348063e-01,-1.051449979258809314e-01,1.506414485874642828e-01
2.154800000000000182e+01,-3.836013503657395018e-01,-4.141828501267289520e-01,-1.127527558391605289e-01,1.442266001705910516e-01
2.155999999999999872e+01,-3.997935198858048045e-01,-3.971204609127129137e-01,-1.206939551225869739e-01,1.384282131927791204e-01
2.157199999999999918e+01,-4.147179172625398702e-01,-3.792809406426203012e-01,-1.289171724363651073e-01,1.332767897216674824e-01
2.158399999999999963e+01,-4.283040170714486616e-01,-3.607743451583671490e-01,-1.373665363546824891e-01,1.287991775011084195e-01
2.159600000000000009e+01,-4.404894747078254014e-01,-3.417210319790648376e-01,-1.459817223663708585e-01,1.250179183302326524e-01
2.160800000000000054e+01,-4.512216996838402383e-01,-3.222516504079060429e-01,-1.546980107206510635e-01,1.219505032450140525e-01
2.162000000000000099e+01,-4.604596497413651623e-01,-3.025069579964819733e-01,-1.634464356828772835e-01,1.196085263844824942e-01
2.163200000000000145e+01,-4.681758579253714747e-01,-2.826373897671821123e-01,-1.721540625021478477e-01,1.179967344538730700e-01
2.164399999999999835e+01,-4.743586893897129841e-01,-2.628022888274763047e-01,-1.807444363956890732e-01,1.171119768725416288e-01
2.165599999999999881e+01,-4.790148011414306350e-01,-2.431686898727903334e-01,-1.891382552241779036e-01,1.169420738122503439e-01
2.166799999999999926e+01,-4.821717445372630806e-01,-2.239095333268223964e-01,-1.972543228670297910e-01,1.174646360727746031e-01
2.167999999999999972e+01,-4.838806061029877759e-01,-2.052011815331268862e-01,-2.050108416184185378e-01,1.186458924427935269e-01
2.169200000000000017e+01,-4.842185274210065171e-01,-1.872201148522440461e-01,-2.123270966275899174e-01,1.204396065119556353e-01
2.170400000000000063e+01,-4.832908818877812984e-01,-1.701387112049234929e-01,-2.191255704651236536e-01,1.227861943854619831e-01
2.171600000000000108e+01,-4.812328207589281481e-01,-1.541200643862513930e-01,-2.253344982168351551e-01,1.256121843838247099e-01
2.172800000000000153e+01,-4.782098428686740177e-01,-1.393118801639690041e-01,-2.308908306647658726e-01,1.288301846147664742e-01
2.173999999999999844e+01,-4.744170059867724998e-01,-1.258396073065042309e-01,-2.357435144447883879e-01,1.323395372764938627e-01
2.175199999999999889e+01,-4.700764008850089604e-01,-1.137991096615116465e-01,-2.398569260268759717e-01,1.360278311518155481e-01
2.176399999999999935e+01,-4.654325708664871497e-01,-1.032493525190133488e-01,-2.432142178556867818e-01,1.397734072611448997e-01
2.177599999999999980e+01,-4.607456952276821061e-01,-9.420573796148082324e-02,-2.458202621496605178e-01,1.434489205106195542e-01
2.178800000000000026e+01,-4.562825702526742133e-01,-8.663484539305842114e-02,-2.477038275322743233e-01,1.469259111551355634e-01
2.180000000000000071e+01,-4.523057042385502657e-01,-8.045137458190902702e-02,-2.489186149557208461e-01,1.500802012360040461e-01
2.181200000000000117e+01,-4.490611603011405717e-01,-7.551801208878072824e-02,-2.495428289988439186e-01,1.527977805181832682e-01
2.182400000000000162e+01,-4.467660777537002526e-01,-7.164872636778189807e-02,-2.496770768408146657e-01,1.549807111299756623e-01
2.183599999999999852e+01,-4.455970125175179875e-01,-6.861564888185754663e-02,-2.494405640823101067e-01,1.565524923750503394e-01
2.184799999999999898e+01,-4.456802958778383617e-01,-6.615926053937976059e-02,-2.489657711081139924e-01,1.574623160993666726e-01
2.185999999999999943e+01,-4.470854795416105976e-01,-6.400114916825722089e-02,-2.483920081754145692e-01,1.576877246804960220e-01
