Frequency, Re(SMin1Min1), Im(SMin1Min1), Re(SMax1Min1), Im(SMax1Min1)
2.000000000000000000e+01,-4.349077320121680912e-01,-4.740725358496968300e-01,-2.732068809076872995e-01,-6.507817523446890462e-02
2.001200000000000045e+01,-4.437724467644722504e-01,-4.611885406538128174e-01,-2.797005833852654333e-01,-6.572566213181421646e-02
2.002400000000000091e+01,-4.522915918079506992e-01,-4.480652418953782745e-01,-2.862390217759883670e-01,-6.618696438392725201e-02
2.003600000000000136e+01,-4.604567974673967612e-01,-4.347134215765461329e-01,-2.928163140013519961e-01,-6.646037022776456193e-02
2.004799999999999827e+01,-4.682601072194150782e-01,-4.211441876248088745e-01,-2.994265201953507094e-01,-6.654439058081851321e-02
2.005999999999999872e+01,-4.756939916317158290e-01,-4.073689532880036546e-01,-3.060636533402897319e-01,-6.643776052609499938e-02
2.007199999999999918e+01,-4.827513610025497282e-01,-3.933994158396766361e-01,-3.127216899057251864e-01,-6.613944016511441593e-02
2.008399999999999963e+01,-4.894255766602459423e-01,-3.792475346902304256e-01,-3.193945804469943694e-01,-6.564861484341508180e-02
2.009600000000000009e+01,-4.957104608904753795e-01,-3.649255090019499770e-01,-3.260762601204282296e-01,-6.496469475634604474e-02
2.010800000000000054e+01,-5.016003054668802807e-01,-3.504457549077668044e-01,-3.327606590733638292e-01,-6.408731394618673305e-02
2.012000000000000099e+01,-5.070898787687362352e-01,-3.358208824347651000e-01,-3.394417126682592878e-01,-6.301632870466011838e-02
2.013200000000000145e+01,-5.121744314773163387e-01,-3.210636722339099136e-01,-3.461133715017499224e-01,-6.175181539792948260e-02
2.014399999999999835e+01,-5.168497008506471868e-01,-3.061870522170588305e-01,-3.527696111811259860e-01,-6.029406773389037189e-02
2.015599999999999881e+01,-5.211119135842026129e-01,-2.912040742015307715e-01,-3.594044418226990945e-01,-5.864359349421833373e-02
2.016799999999999926e+01,-5.249577872727237970e-01,-2.761278906608182759e-01,-3.660119172385232211e-01,-5.680111075601124160e-02
2.017999999999999972e+01,-5.283845304958781908e-01,-2.609717316776741236e-01,-3.725861437803328347e-01,-5.476754363004441434e-02
2.019200000000000017e+01,-5.313898415574469514e-01,-2.457488821931445577e-01,-3.791212888118529745e-01,-5.254401754466489494e-02
2.020400000000000063e+01,-5.339719059146965652e-01,-2.304726596415972717e-01,-3.856115887832273770e-01,-5.013185410602292308e-02
2.021600000000000108e+01,-5.361293923408113615e-01,-2.151563920578684619e-01,-3.920513568838912555e-01,-4.753256556688530837e-02
2.022800000000000153e+01,-5.378614478693017897e-01,-1.998133967383752818e-01,-3.984349902529352172e-01,-4.474784893748277870e-02
2.023999999999999844e+01,-5.391676915747339871e-01,-1.844569595331294609e-01,-4.047569767287116926e-01,-4.177957977289865898e-02
2.025199999999999889e+01,-5.400482072491316066e-01,-1.691003148405142431e-01,-4.110119011222080343e-01,-3.862980567222411982e-02
2.026399999999999935e+01,-5.405035350377909165e-01,-1.537566263712625281e-01,-4.171944510014199414e-01,-3.530073952528215570e-02
2.027599999999999980e+01,-5.405346621022698583e-01,-1.384389687422568904e-01,-4.232994219767546307e-01,-3.179475254298692877e-02
2.028800000000000026e+01,-5.401430123815508244e-01,-1.231603099550437480e-01,-4.293217224801141874e-01,-2.811436710753249454e-02
2.030000000000000071e+01,-5.393304355253379923e-01,-1.079334948077861900e-01,-4.352563780329673504e-01,-2.426224947843141910e-02
2.031200000000000117e+01,-5.380991950756047748e-01,-9.277122928342293462e-02,-4.410985350012269213e-01,-2.024120239011526629e-02
2.032400000000000162e+01,-5.364519559743636812e-01,-7.768606595055692343e-02,-4.468434638372399403e-01,-1.605415757632415799e-02
2.033599999999999852e+01,-5.343917714767645322e-01,-6.269039040754854908e-02,-4.524865618114810584e-01,-1.170416825577556656e-02
2.034799999999999898e+01,-5.319220695494010220e-01,-4.779640879428270761e-02,-4.580233552387981133e-01,-7.194401612811626538e-03
2.035999999999999943e+01,-5.290466388339357673e-01,-3.301613639012403872e-02,-4.634495012060895203e-01,-2.528131305744150351e-03
2.037199999999999989e+01,-5.257696142559299401e-01,-1.836138731081071035e-02,-4.687607888102931497e-01,2.291269965512958504e-03
2.038400000000000034e+01,-5.220954623581476328e-01,-3.843765311526635073e-03,-4.739531399172990378e-01,7.260337802091483030e-03
2.039600000000000080e+01,-5.180289664365718139e-01,1.052534430201168200e-02,-4.790226094540764312e-01,1.237552332996958750e-02
2.040800000000000125e+01,-5.135752115559926168e-01,2.473478165765937917e-02,-4.839653852477816542e-01,1.763320027716263130e-02
2.042000000000000171e+01,-5.087395695203538182e-01,3.877361820418712829e-02,-4.887777874269383926e-01,2.302967187792653511e-02
2.043199999999999861e+01,-5.035276838710424085e-01,5.263116151440314777e-02,-4.934562674009687622e-01,2.856117757905508869e-02
2.044399999999999906e+01,-4.979454549841173527e-01,6.629695902083901360e-02,-4.979974064353769325e-01,3.422389952481454806e-02
2.045599999999999952e+01,-4.919990253350756682e-01,7.976080070457981785e-02,-5.023979138407453915e-01,4.001396879849198479e-02
2.046799999999999997e+01,-4.856947649971535275e-01,9.301272076151703705e-02,-5.066546247944716530e-01,4.592747140004034556e-02
2.048000000000000043e+01,-4.790392574364971678e-01,1.060429982733974014e-01,-5.107644978147380943e-01,5.196045394067905915e-02
2.049200000000000088e+01,-4.720392856647706026e-01,1.188421569140201417e-01,-5.147246119066866132e-01,5.810892903671600190e-02
2.050400000000000134e+01,-4.647018188069370059e-01,1.314009637234857530e-01,-5.185321634011220704e-01,6.436888038619482943e-02
2.051599999999999824e+01,-4.570339991391537127e-01,1.437104269856818439e-01,-5.221844625062889156e-01,7.073626751323490447e-02
2.052799999999999869e+01,-4.490431296488789914e-01,1.557617932461700938e-01,-5.256789295934231054e-01,7.720703016613977843e-02
2.053999999999999915e+01,-4.407366621666548023e-01,1.675465435092318156e-01,-5.290130912367816407e-01,8.377709235644062447e-02
2.055199999999999960e+01,-4.321221861162266031e-01,1.790563886544249972e-01,-5.321845760288901328e-01,9.044236602710679918e-02
2.056400000000000006e+01,-4.232074179273107584e-01,1.902832641139758918e-01,-5.351911101915670654e-01,9.719875433904014150e-02
2.057600000000000051e+01,-4.140001911528073952e-01,2.012193238533997730e-01,-5.380305130031860505e-01,1.040421545658111180e-01
2.058800000000000097e+01,-4.045084473301213679e-01,2.118569336984520435e-01,-5.407006920624269908e-01,1.109684605872950924e-01
2.060000000000000142e+01,-3.947402276242132912e-01,2.221886640520906175e-01,-5.431996384085376883e-01,1.179735649734755670e-01
2.061199999999999832e+01,-3.847036652882197538e-01,2.322072820455520770e-01,-5.455254215179072830e-01,1.250533606501161299e-01
2.062399999999999878e+01,-3.744069789758739386e-01,2.419057431680141090e-01,-5.476761841965177569e-01,1.322037421384246736e-01
2.063599999999999923e+01,-3.638584669387352477e-01,2.512771824194537373e-01,-5.496501373876012675e-01,1.394206063609410295e-01
2.064799999999999969e+01,-3.530665021400417047e-01,2.603149050316789781e-01,-5.514455549137035062e-01,1.466998530061283668e-01
2.066000000000000014e+01,-3.420395283163696898e-01,2.690123768025157180e-01,-5.530607681721354529e-01,1.540373844439839046e-01
2.067200000000000060e+01,-3.307860570176902049e-01,2.773632140884951802e-01,-5.544941608028033375e-01,1.614291051848959213e-01
2.068400000000000105e+01,-3.193146656562587116e-01,2.853611735016025608e-01,-5.557441633473364506e-01,1.688709208736835221e-01
2.069600000000000151e+01,-3.076339965948823862e-01,2.930001413560576196e-01,-5.568092479186034227e-01,1.763587368103251285e-01
2.070799999999999841e+01,-2.957527573054997139e-01,3.002741229116547284e-01,-5.576879228998695703e-01,1.838884559883471603e-01
2.071999999999999886e+01,-2.836797216297428648e-01,3.071772314609681476e-01,-5.583787276932322685e-01,1.914559766412093356e-01
2.073199999999999932e+01,-2.714237321742071218e-01,3.137036773086214203e-01,-5.588802275374793460e-01,1.990571892862015024e-01
2.074399999999999977e+01,-2.589937038743981290e-01,3.198477566922770521e-01,-5.591910084161658689e-01,2.066879732545297554e-01
2.075600000000000023e+01,-2.463986287630765826e-01,3.256038406964945064e-01,-5.593096720776511432e-01,2.143441926952227850e-01
2.076800000000000068e+01,-2.336475819805822474e-01,3.309663642127528282e-01,-5.592348311898739377e-01,2.220216920394095794e-01
2.078000000000000114e+01,-2.207497290669584167e-01,3.359298150014590756e-01,-5.589651046540714541e-01,2.297162909103344641e-01
2.079200000000000159e+01,-2.077143345781533035e-01,3.404887229148015892e-01,-5.584991131032407408e-01,2.374237784631651749e-01
2.080399999999999849e+01,-1.945507720713784694e-01,3.446376493430494126e-01,-5.578354746131218844e-01,2.451399071373476235e-01
2.081599999999999895e+01,-1.812685355075697446e-01,3.483711769512568002e-01,-5.569728006557681521e-01,2.528603858028189988e-01
2.082799999999999940e+01,-1.678772521221822134e-01,3.516838997784846876e-01,-5.559096923284595482e-01,2.605808722799559662e-01
2.083999999999999986e+01,-1.543866968187145861e-01,3.545704137777362375e-01,-5.546447368938064448e-01,2.682969652117093151e-01
2.085200000000000031e+01,-1.408068081429348362e-01,3.570253078817706149e-01,-5.531765046704791855e-01,2.760041952648816244e-01
2.086400000000000077e+01,-1.271477058991822839e-01,3.590431556880749331e-01,-5.515035463180638642e-01,2.836980156361367245e-01
2.087600000000000122e+01,-1.134197104736176659e-01,3.606185078655744780e-01,-5.496243905642028693e-01,2.913737918369732616e-01
2.088800000000000168e+01,-9.963336393268769353e-02,3.617458853962856047e-01,-5.475375424274542269e-01,2.990267907307097017e-01
2.089999999999999858e+01,-8.579945296823411616e-02,3.624197737772185124e-01,-5.452414819952335900e-01,3.066521687934807283e-01
2.091199999999999903e+01,-7.192903376353976252e-02,3.626346183215623520e-01,-5.427346638228998099e-01,3.142449595704776555e-01
2.092399999999999949e+01,-5.803345885706491514e-02,3.623848207136844968e-01,-5.400155170275658945e-01,3.218000602981317959e-01
2.093599999999999994e+01,-4.412440608227104211e-02,3.616647369899471665e-01,-5.370824461585593790e-01,3.293122176629544873e-01
2.094800000000000040e+01,-3.021390966297399922e-02,3.604686771369344234e-01,-5.339338329358417345e-01,3.367760126680864885e-01
2.096000000000000085e+01,-1.631439354341089956e-02,3.587909065206184023e-01,-5.305680389580430534e-01,3.441858445797325028e-01
2.097200000000000131e+01,-2.438707030667917018e-03,3.566256493844572328e-01,-5.269834094932751567e-01,3.515359139274755740e-01
2.098400000000000176e+01,1.139983717618285250e-02,3.539670946816094177e-01,-5.231782784785706797e-01,3.588202045352558156e-01
2.099599999999999866e+01,2.518742250132982585e-02,3.508094045366093594e-01,-5.191509748677511915e-01,3.660324645637384466e-01
2.100799999999999912e+01,3.890968549103099999e-02,3.471467256651124544e-01,-5.148998304828384942e-01,3.731661865501244568e-01
2.101999999999999957e+01,5.255167024632340783e-02,3.429732041170013845e-01,-5.104231895408487540e-01,3.802145864383857932e-01
2.103200000000000003e+01,6.609778025520049449e-02,3.382830037482537633e-01,-5.057194200459583788e-01,3.871705816019123669e-01
2.104400000000000048e+01,7.953172760935849073e-02,3.330703288708395937e-01,-5.007869272567436747e-01,3.940267678717596089e-01
2.105600000000000094e+01,9.283647961586448394e-02,3.273294515774848867e-01,-4.956241694593548353e-01,4.007753955977242377e-01
2.106800000000000139e+01,1.059942028457225571e-01,3.210547442895672621e-01,-4.902296763001358082e-01,4.074083447866995722e-01
2.107999999999999829e+01,1.189862047006347290e-01,3.142407181315635678e-01,-4.846020699552726629e-01,4.139170993837577028e-01
2.109199999999999875e+01,1.317928726275889584e-01,3.068820677942373787e-01,-4.787400894403450735e-01,4.202927207867695469e-01
2.110399999999999920e+01,1.443936111696041413e-01,2.989737236108624963e-01,-4.726426183890637955e-01,4.265258207157850423e-01
2.111599999999999966e+01,1.567667771121218634e-01,2.905109116355801824e-01,-4.663087166575209941e-01,4.326065335947428259e-01
2.112800000000000011e+01,1.688896130694622078e-01,2.814892225799064951e-01,-4.597376561377293225e-01,4.385244886459381264e-01
2.114000000000000057e+01,1.807381799571400327e-01,2.719046905313115547e-01,-4.529289611913162594e-01,4.442687819483632783e-01
2.115200000000000102e+01,1.922872889156063414e-01,2.617538824451611235e-01,-4.458824541402516273e-01,4.498279487702182555e-01
2.116400000000000148e+01,2.035104333917909236e-01,2.510339994664161911e-01,-4.385983062754855166e-01,4.551899365548753851e-01
2.117599999999999838e+01,2.143797222493075416e-01,2.397429911976553807e-01,-4.310770948648990908e-01,4.603420790193999967e-01
2.118799999999999883e+01,2.248658149691890595e-01,2.278796840821688818e-01,-4.233198666576289404e-01,4.652710719166042730e-01
2.119999999999999929e+01,2.349378602232022883e-01,2.154439251110971398e-01,-4.153282083904632493e-01,4.699629511165833717e-01
2.121199999999999974e+01,2.445634393543706098e-01,2.024367420866755307e-01,-4.071043248011532167e-01,4.744030737830631783e-01
2.122400000000000020e+01,2.537085165863061653e-01,1.888605216738976911e-01,-3.986511246403913744e-01,4.785761035543078523e-01
2.123600000000000065e+01,2.623373981071938088e-01,1.747192064425599489e-01,-3.899723151450173453e-01,4.824660007887908719e-01
2.124800000000000111e+01,2.704127025369281734e-01,1.600185120320769816e-01,-3.810725053857505484e-01,4.860560191025539711e-01
2.126000000000000156e+01,2.778953456878652806e-01,1.447661654522232333e-01,-3.719573188283885612e-01,4.893287096079446119e-01
2.127199999999999847e+01,2.847445429701189190e-01,1.289721653517425515e-01,-3.626335153422755586e-01,4.922659344614886412e-01
2.128399999999999892e+01,2.909178332687680779e-01,1.126490648295792318e-01,-3.531091227474939531e-01,4.948488915400703347e-01
2.129599999999999937e+01,2.963711286275315659e-01,9.581227701465123980e-02,-3.433935778055092203e-01,4.970581522862419499e-01
2.130799999999999983e+01,3.010587946032560747e-01,7.848040318146216887e-02,-3.334978763188228834e-01,4.988737149907893631e-01
2.132000000000000028e+01,3.049337666952550152e-01,6.067558258199429871e-02,-3.234347317054813709e-01,5.002750760067502522e-01
2.133200000000000074e+01,3.079477087857135365e-01,4.242386243852667993e-02,-3.132187410450661957e-01,5.012413216049429465e-01
2.134400000000000119e+01,3.100512200282594111e-01,2.375558563712947338e-02,-3.028665571457625494e-01,5.017512433745815459e-01
2.135600000000000165e+01,3.111940970603001566e-01,4.705792568064274747e-03,-2.923970646494294945e-01,5.017834802283154261e-01
2.136799999999999855e+01,3.113256587514844353e-01,-1.468536774013435436e-02,-2.818315575669458339e-01,5.013166901698257183e-01
2.137999999999999901e+01,3.103951408868392825e-01,-3.437222356405739143e-02,-2.711939149157817641e-01,5.003297550004133232e-01
2.139199999999999946e+01,3.083521681599573072e-01,-5.430317161926671160e-02,-2.605107703158294763e-01,4.988020210511133201e-01
2.140399999999999991e+01,3.051473105500410732e-01,-7.442028345861156913e-02,-2.498116704932317467e-01,4.967135787964686577e-01
2.141600000000000037e+01,3.007327304979462990e-01,-9.465893936910961537e-02,-2.391292166583277035e-01,4.940455837992630550e-01
2.142800000000000082e+01,2.950629261938754744e-01,-1.149475043226624166e-01,-2.284991816844444412e-01,4.907806208131662573e-01
2.144000000000000128e+01,2.880955746513638172e-01,-1.352070629549887160e-01,-2.179605949529004605e-01,4.869031119921612416e-01
2.145199999999999818e+01,2.797924759768141700e-01,-1.553512329725749985e-01,-2.075557856932669920e-01,4.823997689827431712e-01
2.146399999999999864e+01,2.701205972661944732e-01,-1.752860786934788695e-01,-1.973303746994897467e-01,4.772600871728626681e-01
2.147599999999999909e+01,2.590532108021873503e-01,-1.949101484511922833e-01,-1.873332035215993230e-01,4.714768785155466491e-01
2.148799999999999955e+01,2.465711166459175485e-01,-2.141146611298705427e-01,-1.776161897159238556e-01,4.650468371250549016e-01
2.150000000000000000e+01,2.326639343206846622e-01,-2.327838679138796441e-01,-1.682340965967287771e-01,4.579711292714896409e-01
2.151200000000000045e+01,2.173314421328718660e-01,-2.507956151548446089e-01,-1.592442062931933855e-01,4.502559965169807277e-01
2.152400000000000091e+01,2.005849359061213644e-01,-2.680221327944870002e-01,-1.507058859081902291e-01,4.419133576209831049e-01
2.153600000000000136e+01,1.824485717496053538e-01,-2.843310697410836307e-01,-1.426800383259621829e-01,4.329613916150745201e-01
2.154800000000000182e+01,1.629606502748563723e-01,-2.995867927161901534e-01,-1.352284318344377234e-01,4.234250812782928697e-01
2.155999999999999872e+01,1.421747928633072533e-01,-3.136519581613275709e-01,-1.284129062916275765e-01,4.133366933510580488e-01
2.157199999999999918e+01,1.201609547186918286e-01,-3.263893577162182980e-01,-1.222944580995840996e-01,4.027361694726978025e-01
2.158399999999999963e+01,9.700621515173184217e-02,-3.376640265889369052e-01,-1.169322117079967388e-01,3.916714003130119526e-01
2.159600000000000009e+01,7.281528352659591419e-02,-3.473455910579515415e-01,-1.123822916167333263e-01,3.801983550061153183e-01
2.160800000000000054e+01,4.771066023529347416e-02,-3.553108168198085282e-01,-1.086966156434891057e-01,3.683810390887251596e-01
2.162000000000000099e+01,2.183239656798848308e-02,-3.614463046077399100e-01,-1.059216372199494188e-01,3.562912569529630979e-01
2.163200000000000145e+01,-4.662594132312083972e-03,-3.656512643735038703e-01,-1.040970712245805063e-01,3.440081595189073971e-01
2.164399999999999835e+01,-3.160170889802163541e-02,-3.678402854656113719e-01,-1.032546438157582874e-01,3.316175644621103258e-01
2.165599999999999881e+01,-5.879832917371832085e-02,-3.679460089002757894e-01,-1.034169113115431943e-01,3.192110447813105711e-01
2.166799999999999926e+01,-8.605399406708127974e-02,-3.659216002807077484e-01,-1.045961957936004522e-01,3.068847914599253102e-01
2.167999999999999972e+01,-1.131610473640653203e-01,-3.617429193420299560e-01,-1.067936852833444444e-01,2.947382669649125098e-01
2.169200000000000017e+01,-1.399057085071645223e-01,-3.554102853922948557e-01,-1.099987436782414868e-01,2.828726776643948337e-01
2.170400000000000063e+01,-1.660714937540583858e-01,-3.469497475919187113e-01,-1.141884699796452546e-01,2.713893041213991109e-01
2.171600000000000108e+01,-1.914428919739309398e-01,-3.364137850498081228e-01,-1.193275377800031845e-01,2.603877377599237430e-01
2.172800000000000153e+01,-2.158091818622146496e-01,-3.238813835088180659e-01,-1.253683348764963179e-01,2.499640797475545795e-01
2.173999999999999844e+01,-2.389682654261289507e-01,-3.094574617470545186e-01,-1.322514098821165052e-01,2.402091623618310967e-01
2.175199999999999889e+01,-2.607303876774579310e-01,-2.932716500182261377e-01,-1.399062186833209820e-01,2.312068540840525877e-01
2.176399999999999935e+01,-2.809216152585129467e-01,-2.754764528097941589e-01,-1.482521495638761955e-01,2.230325069598312060e-01
2.177599999999999980e+01,-2.993869572364512011e-01,-2.562448566682861140e-01,-1.571997928408656320e-01,2.157515984749190929e-01
2.178800000000000026e+01,-3.159930288371206042e-01,-2.357674686641403894e-01,-1.666524099345406962e-01,2.094186107439334199e-01
2.180000000000000071e+01,-3.306301821185036460e-01,-2.142492903957746442e-01,-1.765075487341467297e-01,2.040761779146031130e-01
2.181200000000000117e+01,-3.432140546725729324e-01,-1.919062449295699246e-01,-1.866587474763411747e-01,1.997545192807838599e-01
2.182400000000000162e+01,-3.536865162678454189e-01,-1.689615790465960332e-01,-1.969972683527715929e-01,1.964711617129407673e-01
2.183599999999999852e+01,-3.620160217182208928e-01,-1.456422606140875264e-01,-2.074138046108044697e-01,1.942309416912726405e-01
2.184799999999999898e+01,-3.681974041700906697e-01,-1.221754814636142883e-01,-2.178001106085732386e-01,1.930262653909735338e-01
2.185999999999999943e+01,-3.722511647803122825e-01,-9.878536101565411898e-02,-2.280505124980786724e-01,1.928375956537815017e-01
