Frequency, Re(SMin1Min1), Im(SMin1Min1), Re(SMax1Min1), Im(SMax1Min1)
2.000000000000000000e+01,-4.236568406783497442e-01,-4.853262257182922035e-01,-2.656909206167267778e-01,-6.133787251691484588e-02
2.001200000000000045e+01,-4.327395416830589481e-01,-4.727911356311753632e-01,-2.721687475205459839e-01,-6.215067471870069915e-02
2.002400000000000091e+01,-4.414988452505745897e-01,-4.600079616098342594e-01,-2.786932344541036555e-01,-6.277943295221667663e-02
2.003600000000000136e+01,-4.499257551844387248e-01,-4.469862440428891137e-01,-2.852587712390173835e-01,-6.322245512586131821e-02
2.004799999999999827e+01,-4.580116150571653666e-01,-4.337358966006826244e-01,-2.918596897588454642e-01,-6.347824739529221716e-02
2.005999999999999872e+01,-4.657481258880958319e-01,-4.202671904921034263e-01,-2.984902725983989979e-01,-6.354551599193034028e-02
2.007199999999999918e+01,-4.731273628809420373e-01,-4.065907377192370942e-01,-3.051447617393950873e-01,-6.342316858219164410e-02
2.008399999999999963e+01,-4.801417911527083859e-01,-3.927174733962832121e-01,-3.118173672824557374e-01,-6.311031515571904893e-02
2.009600000000000009e+01,-4.867842803909609439e-01,-3.786586372046140681e-01,-3.185022761655321721e-01,-6.260626844249453371e-02
2.010800000000000054e+01,-4.930481183821219249e-01,-3.644257540606032353e-01,-3.251936608488082969e-01,-6.191054386130697557e-02
2.012000000000000099e+01,-4.989270233596868609e-01,-3.500306140773301045e-01,-3.318856879365191248e-01,-6.102285900388192130e-02
2.013200000000000145e+01,-5.044151551276331302e-01,-3.354852519049125736e-01,-3.385725267065415878e-01,-5.994313266099370041e-02
2.014399999999999835e+01,-5.095071249212227427e-01,-3.208019255375601508e-01,-3.452483575190824494e-01,-5.867148339930158135e-02
2.015599999999999881e+01,-5.141980039743645481e-01,-3.059930946779881311e-01,-3.519073800766686633e-01,-5.720822769890319959e-02
2.016799999999999926e+01,-5.184833307699346916e-01,-2.910713987518763202e-01,-3.585438215084820190e-01,-5.555387766428080548e-02
2.017999999999999972e+01,-5.223591169568090331e-01,-2.760496346663003919e-01,-3.651519442530957726e-01,-5.370913832243671276e-02
2.019200000000000017e+01,-5.258218519248643030e-01,-2.609407344069666346e-01,-3.717260537148558419e-01,-5.167490452430476694e-02
2.020400000000000063e+01,-5.288685060364085588e-01,-2.457577425689537187e-01,-3.782605056702548763e-01,-4.945225746639233394e-02
2.021600000000000108e+01,-5.314965325200827762e-01,-2.305137939152352433e-01,-3.847497134022759835e-01,-4.704246085213142220e-02
2.022800000000000153e+01,-5.337038680402669266e-01,-2.152220910560770917e-01,-3.911881545419209627e-01,-4.444695671234369372e-02
2.023999999999999844e+01,-5.354889319623727939e-01,-1.998958823405435625e-01,-3.975703775978512433e-01,-4.166736090733901693e-02
2.025199999999999889e+01,-5.368506243408220913e-01,-1.845484400491093913e-01,-4.038910081565608157e-01,-3.870545833207372777e-02
2.026399999999999935e+01,-5.377883226634330160e-01,-1.691930389734768170e-01,-4.101447547371203095e-01,-3.556319784897440245e-02
2.027599999999999980e+01,-5.383018773919533428e-01,-1.538429354662287363e-01,-4.163264142866112127e-01,-3.224268697198571371e-02
2.028800000000000026e+01,-5.383916063441513966e-01,-1.385113470391598489e-01,-4.224308773035819753e-01,-2.874618632745723143e-02
2.030000000000000071e+01,-5.380582879688012854e-01,-1.232114325849303915e-01,-4.284531325790292833e-01,-2.507610391705460823e-02
2.031200000000000117e+01,-5.373031535692530669e-01,-1.079562732918954160e-01,-4.343882715462151767e-01,-2.123498920922255173e-02
2.032400000000000162e+01,-5.361278785364321786e-01,-9.275885431710571838e-02,-4.402314922319342516e-01,-1.722552708505969282e-02
2.033599999999999852e+01,-5.345345726556217647e-01,-7.763204727721811915e-02,-4.459781028040027961e-01,-1.305053166547430823e-02
2.034799999999999898e+01,-5.325257695553904380e-01,-6.258859361147647848e-02,-4.516235247118102203e-01,-8.712940045785383045e-03
2.035999999999999943e+01,-5.301044153697841432e-01,-4.764108886558167388e-02,-4.571632954173026064e-01,-4.215805964485462402e-03
2.037199999999999989e+01,-5.272738566875593280e-01,-3.280196793907724090e-02,-4.625930707167260070e-01,4.377065676996278127e-04
2.038400000000000034e+01,-5.240378278643303966e-01,-1.808349133344407805e-02,-4.679086266543411310e-01,5.244329652699150635e-03
2.039600000000000080e+01,-5.204004377749823496e-01,-3.497732432027786300e-03,-4.731058610308624957e-01,1.020069787811539799e-02
2.040800000000000125e+01,-5.163661560847668808e-01,1.094343416286879152e-02,-4.781807945109370905e-01,1.530335465368414319e-02
2.042000000000000171e+01,-5.119397991182287333e-01,2.522834321604980334e-02,-4.831295713356874577e-01,2.054875848649716230e-02
2.043199999999999861e+01,-5.071265154050719204e-01,3.934554835482882706e-02,-4.879484596469682578e-01,2.593328917129084782e-02
2.044399999999999906e+01,-5.019317709821152773e-01,5.328383046526666278e-02,-4.926338514317582518e-01,3.145325387264372163e-02
2.045599999999999952e+01,-4.963613345295166401e-01,6.703220498611787981e-02,-4.971822620961539596e-01,3.710489307677094367e-02
2.046799999999999997e+01,-4.904212624187061498e-01,8.057992810259029248e-02,-5.015903296791633936e-01,4.288438639145229075e-02
2.048000000000000043e+01,-4.841178837480801245e-01,9.391650184675882918e-02,-5.058548137178661142e-01,4.878785817309095468e-02
2.049200000000000088e+01,-4.774577854408174615e-01,1.070316781161623348e-01,-5.099725937762633610e-01,5.481138296134517585e-02
2.050400000000000134e+01,-4.704477974774204374e-01,1.199154616265507567e-01,-5.139406676506043103e-01,6.095099070201537295e-02
2.051599999999999824e+01,-4.630949783335159831e-01,1.325581118186460461e-01,-5.177561492652399400e-01,6.720267174015141787e-02
2.052799999999999869e+01,-4.554066006911186015e-01,1.449501437427449801e-01,-5.214162662731508524e-01,7.356238156595377997e-02
2.053999999999999915e+01,-4.473901374892210181e-01,1.570823279483176682e-01,-5.249183573762821187e-01,8.002604529696775992e-02
2.055199999999999960e+01,-4.390532483771732442e-01,1.689456894090271832e-01,-5.282598693807790680e-01,8.658956188078877070e-02
2.056400000000000006e+01,-4.304037666315631561e-01,1.805315055164313787e-01,-5.314383540033946751e-01,9.324880800337080611e-02
2.057600000000000051e+01,-4.214496865949991511e-01,1.918313031782395151e-01,-5.344514644446082263e-01,9.999964168849789781e-02
2.058800000000000097e+01,-4.121991516924359278e-01,2.028368550592799802e-01,-5.372969517455044031e-01,1.068379055750003359e-01
2.060000000000000142e+01,-4.026604430782155242e-01,2.135401750054060910e-01,-5.399726609446608983e-01,1.137594298585633684e-01
2.061199999999999832e+01,-3.928419689646753254e-01,2.239335126923741592e-01,-5.424765270521901828e-01,1.207600348856782274e-01
2.062399999999999878e+01,-3.827522546806181869e-01,2.340093475432682424e-01,-5.448065708579982180e-01,1.278355333877042310e-01
2.063599999999999923e+01,-3.723999335060084737e-01,2.437603819594524601e-01,-5.469608945914079534e-01,1.349817323433800398e-01
2.064799999999999969e+01,-3.617937383269724250e-01,2.531795339112121734e-01,-5.489376774497273237e-01,1.421944344585167330e-01
2.066000000000000014e+01,-3.509424941535578268e-01,2.622599289353063079e-01,-5.507351710133903122e-01,1.494694392516857928e-01
2.067200000000000060e+01,-3.398551115408564582e-01,2.709948915875557973e-01,-5.523516945652635624e-01,1.568025437348526119e-01
2.068400000000000105e+01,-3.285405809529016730e-01,2.793779363995072540e-01,-5.537856303323906992e-01,1.641895426781070366e-01
2.069600000000000151e+01,-3.170079681074152167e-01,2.874027583889710580e-01,-5.550354186683471580e-01,1.716262284473561717e-01
2.070799999999999841e+01,-3.052664103386857897e-01,2.950632231750550671e-01,-5.560995531947997561e-01,1.791083904038232033e-01
2.071999999999999886e+01,-2.933251140151642011e-01,3.023533567491879515e-01,-5.569765759214018175e-01,1.866318138538608784e-01
2.073199999999999932e+01,-2.811933530481270371e-01,3.092673349544772798e-01,-5.576650723634305473e-01,1.941922785372535987e-01
2.074399999999999977e+01,-2.688804685275628659e-01,3.157994727269534119e-01,-5.581636666774287825e-01,2.017855566417919022e-01
2.075600000000000023e+01,-2.563958695218391814e-01,3.219442131532803675e-01,-5.584710168355965232e-01,2.094074103310797907e-01
2.076800000000000068e+01,-2.437490350781409965e-01,3.276961164011890637e-01,-5.585858098608270650e-01,2.170535887723353263e-01
2.078000000000000114e+01,-2.309495174616222612e-01,3.330498485805010178e-01,-5.585067571451203250e-01,2.247198246496882046e-01
2.079200000000000159e+01,-2.180069466722441007e-01,3.380001705947991431e-01,-5.582325898755309268e-01,2.324018301480476612e-01
2.080399999999999849e+01,-2.049310362798160978e-01,3.425419270462979338e-01,-5.577620545932165941e-01,2.400952923914710102e-01
2.081599999999999895e+01,-1.917315906193364783e-01,3.466700352594897505e-01,-5.570939089129163246e-01,2.477958683190782663e-01
2.082799999999999940e+01,-1.784185133908377241e-01,3.503794744926710392e-01,-5.562269174322145293e-01,2.554991789804997304e-01
2.083999999999999986e+01,-1.650018177099213668e-01,3.536652754107340590e-01,-5.551598478622700172e-01,2.632008032317485480e-01
2.085200000000000031e+01,-1.514916376577380153e-01,3.565225098974640905e-01,-5.538914674144252981e-01,2.708962708112847007e-01
2.086400000000000077e+01,-1.378982413816189911e-01,3.589462812913629675e-01,-5.524205394801274815e-01,2.785810547749824062e-01
2.087600000000000122e+01,-1.242320458002298122e-01,3.609317151356981057e-01,-5.507458206451822935e-01,2.862505632674833822e-01
2.088800000000000168e+01,-1.105036329698640268e-01,3.624739505411184726e-01,-5.488660580833155667e-01,2.939001306065316399e-01
2.089999999999999858e+01,-9.672376817117636638e-02,3.635681322680676120e-01,-5.467799873785424980e-01,3.015250076557552394e-01
2.091199999999999903e+01,-8.290341977826089226e-02,3.642094036462563134e-01,-5.444863308309880745e-01,3.091203514606479796e-01
2.092399999999999949e+01,-6.905378097444542229e-02,3.643929004600006683e-01,-5.419837963065007314e-01,3.166812141217414944e-01
2.093599999999999994e+01,-5.518629338113947153e-02,3.641137459412416844e-01,-5.392710766968764613e-01,3.242025308786495308e-01
2.094800000000000040e+01,-4.131267266782544245e-02,3.633670470267957309e-01,-5.363468500646799697e-01,3.316791073784800536e-01
2.096000000000000085e+01,-2.744493621217516596e-02,3.621478920529922485e-01,-5.332097805547327818e-01,3.391056061024839696e-01
2.097200000000000131e+01,-1.359543287943371440e-02,3.604513500794645497e-01,-5.298585201632050046e-01,3.464765319255659892e-01
2.098400000000000176e+01,2.231250107544814143e-04,3.582724720546912045e-01,-5.262917114651912698e-01,3.537862167848098705e-01
2.099599999999999866e+01,1.399762746424452337e-02,3.556062940591147581e-01,-5.225079914125604352e-01,3.610288034352963082e-01
2.100799999999999912e+01,2.771453027727448573e-02,3.524478428874641689e-01,-5.185059963259345261e-01,3.681982282747329749e-01
2.101999999999999957e+01,4.135981613069088236e-02,3.487921442604879352e-01,-5.142843682178948050e-01,3.752882032226118603e-01
2.103200000000000003e+01,5.491895326678935402e-02,3.446342339878130656e-01,-5.098417625989414281e-01,3.822921966453409759e-01
2.104400000000000048e+01,6.837685171379553895e-02,3.399691724383032687e-01,-5.051768579335653708e-01,3.892034133259812956e-01
2.105600000000000094e+01,8.171781703876165870e-02,3.347920627121882542e-01,-5.002883669308587633e-01,3.960147734864213898e-01
2.106800000000000139e+01,9.492550162977725359e-02,3.290980729505414426e-01,-4.951750498725736582e-01,4.027188908812580626e-01
2.107999999999999829e+01,1.079828535338825529e-01,3.228824632624345270e-01,-4.898357302013559011e-01,4.093080499967332031e-01
2.109199999999999875e+01,1.208720629088986254e-01,3.161406177983000498e-01,-4.842693126130059311e-01,4.157741824052996749e-01
2.110399999999999920e+01,1.335745061865170058e-01,3.088680825496836757e-01,-4.784748039189898328e-01,4.221088423471683893e-01
2.111599999999999966e+01,1.460706880920146777e-01,3.010606095102941193e-01,-4.724513369688095876e-01,4.283031816352912413e-01
2.112800000000000011e+01,1.583401817238058729e-01,2.927142078909752421e-01,-4.661981979461555237e-01,4.343479240100291405e-01
2.114000000000000057e+01,1.703615669658115894e-01,2.838252031411643839e-01,-4.597148573775453606e-01,4.402333391052494771e-01
2.115200000000000102e+01,1.821123675887516835e-01,2.743903045909348304e-01,-4.530010052170427293e-01,4.459492162293801076e-01
2.116400000000000148e+01,1.935689874950876910e-01,2.644066825897661843e-01,-4.460565903950555744e-01,4.514848382139904359e-01
2.117599999999999838e+01,2.047066466785268102e-01,2.538720560792509517e-01,-4.388818652423161493e-01,4.568289556396639695e-01
2.118799999999999883e+01,2.154993176051389903e-01,2.427847915952198732e-01,-4.314774352210392627e-01,4.619697618152964202e-01
2.119999999999999929e+01,2.259196628815319241e-01,2.311440147478501517e-01,-4.238443144126531337e-01,4.668948689634599414e-01
2.121199999999999974e+01,2.359389752590310141e-01,2.189497352729314339e-01,-4.159839872237874325e-01,4.715912861523116062e-01
2.122400000000000020e+01,2.455271212335689845e-01,2.062029867801254412e-01,-4.078984767776639986e-01,4.760453996144946021e-01
2.123600000000000065e+01,2.546524897419322753e-01,1.929059823396214179e-01,-3.995904204540773885e-01,4.802429562067709878e-01
2.124800000000000111e+01,2.632819477281563292e-01,1.790622870415275736e-01,-3.910631530252058341e-01,4.841690508913443769e-01
2.126000000000000156e+01,2.713808046612509184e-01,1.646770086255170129e-01,-3.823207978030229159e-01,4.878081192616989803e-01
2.127199999999999847e+01,2.789127884283107983e-01,1.497570072033637401e-01,-3.733683661632795636e-01,4.911439362923769036e-01
2.128399999999999892e+01,2.858400354058110993e-01,1.343111249741724966e-01,-3.642118657361607670e-01,4.941596226633073186e-01
2.129599999999999937e+01,2.921230979254297311e-01,1.183504366500432170e-01,-3.548584174496906551e-01,4.968376601939216708e-01
2.130799999999999983e+01,2.977209727965219876e-01,1.018885210551724874e-01,-3.453163814725146441e-01,4.991599181186817114e-01
2.132000000000000028e+01,3.025911550199140709e-01,8.494175401973916295e-02,-3.355954919215434207e-01,5.011076921404963302e-01
2.133200000000000074e+01,3.066897213190984961e-01,6.752962224454001072e-02,-3.257069999695399454e-01,5.026617584074425382e-01
2.134400000000000119e+01,3.099714486128521962e-01,4.967505724595014382e-02,-3.156638247006525178e-01,5.038024447646802795e-01
2.135600000000000165e+01,3.123899730410614195e-01,3.140478778483742767e-02,-3.054807107101995545e-01,5.045097218288450147e-01
2.136799999999999855e+01,3.138979956104648306e-01,1.274970831903999950e-02,-2.951743910211427346e-01,5.047633166051422871e-01
2.137999999999999901e+01,3.144475409198295157e-01,-6.254740020726209764e-03,-2.847637533866955728e-01,5.045428515034195982e-01
2.139199999999999946e+01,3.139902757176962766e-01,-2.556818066213320528e-02,-2.742700074611239547e-01,5.038280116907226658e-01
2.140399999999999991e+01,3.124778941946870225e-01,-4.514491119281278247e-02,-2.637168496457000799e-01,5.025987437225548637e-01
2.141600000000000037e+01,3.098625768617055964e-01,-6.493351913331911474e-02,-2.531306216549178423e-01,5.008354882975719624e-01
2.142800000000000082e+01,3.060975295512297079e-01,-8.487651352081500289e-02,-2.425404580046104930e-01,4.985194497512464018e-01
2.144000000000000128e+01,3.011376084286315757e-01,-1.049099839615629526e-01,-2.319784167110141015e-01,4.956329045101682818e-01
2.145199999999999818e+01,2.949400358343219897e-01,-1.249633009727282168e-01,-2.214795865287227938e-01,4.921595501346175960e-01
2.146399999999999864e+01,2.874652102114996222e-01,-1.449588736809175327e-01,-2.110821630771236024e-01,4.880848957463262972e-01
2.147599999999999909e+01,2.786776112246907577e-01,-1.648119831901152521e-01,-2.008274852530670396e-01,4.833966935357900674e-01
2.148799999999999955e+01,2.685467983639341916e-01,-1.844307120588362381e-01,-1.907600224597525984e-01,4.780854096382222695e-01
2.150000000000000000e+01,2.570484977969941798e-01,-2.037159921836126375e-01,-1.809273024714428690e-01,4.721447309372948098e-01
2.151200000000000045e+01,2.441657679419292903e-01,-2.225617947876721014e-01,-1.713797692886063484e-01,4.655721022927093444e-01
2.152400000000000091e+01,2.298902291891191385e-01,-2.408554869390034658e-01,-1.621705602210810337e-01,4.583692863030101039e-01
2.153600000000000136e+01,2.142233374639740395e-01,-2.584783788225710754e-01,-1.533551917809572729e-01,4.505429350467515803e-01
2.154800000000000182e+01,1.971776750171953252e-01,-2.753064846010565003e-01,-1.449911448905307487e-01,4.421051603642934258e-01
2.155999999999999872e+01,1.787782251707602521e-01,-2.912115168507065643e-01,-1.371373415289457443e-01,4.330740862592624696e-01
2.157199999999999918e+01,1.590635910419701537e-01,-3.060621300104922060e-01,-1.298535073541721152e-01,4.234743640664502817e-01
2.158399999999999963e+01,1.380871119225491050e-01,-3.197254218447461160e-01,-1.231994181156235435e-01,4.133376283495382442e-01
2.159600000000000009e+01,1.159178255079909570e-01,-3.320686934933227419e-01,-1.172340318415988486e-01,4.027028692960183953e-01
2.160800000000000054e+01,9.264122013794014177e-02,-3.429614582995769712e-01,-1.120145138061959394e-01,3.916166959387814006e-01
2.162000000000000099e+01,6.835971925180653330e-02,-3.522776774646256825e-01,-1.075951670329725746e-01,3.801334641395371361e-01
2.163200000000000145e+01,4.319284101662472508e-02,-3.598981870748976797e-01,-1.040262873654350106e-01,3.683152441963382651e-01
2.164399999999999835e+01,1.727698011351410864e-02,-3.657132668058790670e-01,-1.013529686161670218e-01,3.562316054248337305e-01
2.165599999999999881e+01,-9.235233597488280016e-03,-3.696252864507982294e-01,-9.961388959112937869e-02,3.439591992755138272e-01
2.166799999999999926e+01,-3.617603317022830695e-02,-3.715513533772176746e-01,-9.884012038968000013e-02,3.315811285416437326e-01
2.167999999999999972e+01,-6.336408759565508031e-02,-3.714258732208434721e-01,-9.905398977416035589e-02,3.191860978951196470e-01
2.169200000000000017e+01,-9.060654909302016946e-02,-3.692029287599732923e-01,-1.002680580548647865e-01,3.068673501033967743e-01
2.170400000000000063e+01,-1.177015526333469869e-01,-3.648583790650298808e-01,-1.024842403720574724e-01,2.947214023961501339e-01
2.171600000000000108e+01,-1.444411229510546846e-01,-3.583915835527060056e-01,-1.056931231200534810e-01,2.828466079681765111e-01
2.172800000000000153e+01,-1.706144217652806327e-01,-3.498266640053312448e-01,-1.098735113708849132e-01,2.713415777991676214e-01
2.173999999999999844e+01,-1.960112472701441844e-01,-3.392132319874080482e-01,-1.149922375643884082e-01,2.603035070453816324e-01
2.175199999999999889e+01,-2.204256808905724063e-01,-3.266265289096179081e-01,-1.210042517378450422e-01,2.498264574245250558e-01
2.176399999999999935e+01,-2.436597644085873038e-01,-3.121669502147998432e-01,-1.278530017218038328e-01,2.399996515793574314e-01
2.177599999999999980e+01,-2.655270850723847609e-01,-2.959589522604573752e-01,-1.354710987950476231e-01,2.309058368535133188e-01
2.178800000000000026e+01,-2.858561479288394547e-01,-2.781493685578288466e-01,-1.437812511853940878e-01,2.226197739818451815e-01
2.180000000000000071e+01,-3.044934234786318417e-01,-2.589051890302319081e-01,-1.526974354981813220e-01,2.152069009180309356e-01
2.181200000000000117e+01,-3.213059742995191259e-01,-2.384108798442409194e-01,-1.621262655811958053e-01,2.087222137291538382e-01
2.182400000000000162e+01,-3.361835853696498178e-01,-2.168653403734168983e-01,-1.719685102801060128e-01,2.032093957891985270e-01
2.183599999999999852e+01,-3.490403478159032624e-01,-1.944786066476262842e-01,-1.821207065614963982e-01,1.987002142202726751e-01
2.184799999999999898e+01,-3.598156727727566673e-01,-1.714684164684474599e-01,-1.924768128586102078e-01,1.952141896026448886e-01
2.185999999999999943e+01,-3.684747389304689480e-01,-1.480567501122328766e-01,-2.029298492047066638e-01,1.927585323634378178e-01
