Frequency, Re(SMin1Min1), Im(SMin1Min1), Re(SMax1Min1), Im(SMax1Min1)
2.000000000000000000e+01,-4.109294800611103526e-01,-5.108402757153656104e-01,-2.510433907724000102e-01,-5.939847368579116715e-02
2.001200000000000045e+01,-4.194687302602445045e-01,-4.987555934853866169e-01,-2.571833687218053055e-01,-6.008374990198205035e-02
2.002400000000000091e+01,-4.277535874689398776e-01,-4.864676042946077250e-01,-2.633661458843634673e-01,-6.062492346405216198e-02
2.003600000000000136e+01,-4.357766383056039250e-01,-4.739815396358916244e-01,-2.695882191550503237e-01,-6.101984128270803581e-02
2.004799999999999827e+01,-4.435305611190881736e-01,-4.613029308434666853e-01,-2.758459863573973769e-01,-6.126644349183658911e-02
2.005999999999999872e+01,-4.510081389599959745e-01,-4.484376088708251773e-01,-2.821357490668521817e-01,-6.136276805433170389e-02
2.007199999999999918e+01,-4.582022726865939144e-01,-4.353917034369867989e-01,-2.884537156763342658e-01,-6.130695526399558559e-02
2.008399999999999963e+01,-4.651059941698398315e-01,-4.221716415255482024e-01,-2.947960046998436279e-01,-6.109725212832159413e-02
2.009600000000000009e+01,-4.717124795602489762e-01,-4.087841452231267270e-01,-3.011586483087860255e-01,-6.073201661707143539e-02
2.010800000000000054e+01,-4.780150625781101059e-01,-3.952362288863146556e-01,-3.075375960946920562e-01,-6.020972176181430685e-02
2.012000000000000099e+01,-4.840072477869979961e-01,-3.815351956287121871e-01,-3.139287190508701086e-01,-5.952895959175081436e-02
2.013200000000000145e+01,-4.896827238096663204e-01,-3.676886331221675963e-01,-3.203278137643809087e-01,-5.868844489170476492e-02
2.014399999999999835e+01,-4.950353764442664839e-01,-3.537044087094847189e-01,-3.267306068088338122e-01,-5.768701876842383114e-02
2.015599999999999881e+01,-5.000593016382393063e-01,-3.395906638283796020e-01,-3.331327593272262466e-01,-5.652365201202178002e-02
2.016799999999999926e+01,-5.047488182766695086e-01,-3.253558077497894496e-01,-3.395298717932291876e-01,-5.519744823993730926e-02
2.017999999999999972e+01,-5.090984807416050195e-01,-3.110085106366393126e-01,-3.459174889382117257e-01,-5.370764681154864550e-02
2.019200000000000017e+01,-5.131030911988194720e-01,-2.965576959322833162e-01,-3.522911048304485093e-01,-5.205362550231674990e-02
2.020400000000000063e+01,-5.167577115687405076e-01,-2.820125320912097444e-01,-3.586461680919867945e-01,-5.023490292725918405e-02
2.021600000000000108e+01,-5.200576751386014607e-01,-2.673824236676624055e-01,-3.649780872379058128e-01,-4.825114070448896508e-02
2.022800000000000153e+01,-5.229985977738020875e-01,-2.526770017812241531e-01,-3.712822361218752198e-01,-4.610214535050968093e-02
2.023999999999999844e+01,-5.255763886872550916e-01,-2.379061139815791814e-01,-3.775539594712517544e-01,-4.378786990014037900e-02
2.025199999999999889e+01,-5.277872607268878635e-01,-2.230798135378013747e-01,-3.837885784943644296e-01,-4.130841524496516731e-02
2.026399999999999935e+01,-5.296277401429737575e-01,-2.082083481807976422e-01,-3.899813965420150241e-01,-3.866403118555527402e-02
2.027599999999999980e+01,-5.310946757986410027e-01,-1.933021483303792587e-01,-3.961277048049248184e-01,-3.585511719375337331e-02
2.028800000000000026e+01,-5.321852477891126920e-01,-1.783718148414898397e-01,-4.022227880283184009e-01,-3.288222288275934740e-02
2.030000000000000071e+01,-5.328969754374273116e-01,-1.634281063069190909e-01,-4.082619302247078585e-01,-2.974604818401887715e-02
2.031200000000000117e+01,-5.332277246369735435e-01,-1.484819259562658034e-01,-4.142404203657559236e-01,-2.644744323121644980e-02
2.032400000000000162e+01,-5.331757145137930864e-01,-1.335443081937612853e-01,-4.201535580338913167e-01,-2.298740795304490825e-02
2.033599999999999852e+01,-5.327395233848949418e-01,-1.186264048193150789e-01,-4.259966590146169740e-01,-1.936709137795096861e-02
2.034799999999999898e+01,-5.319180939915890693e-01,-1.037394709796835568e-01,-4.317650608103174026e-01,-1.558779065508089298e-02
2.035999999999999943e+01,-5.307107379905993128e-01,-8.889485089818362218e-02,-4.374541280568211010e-01,-1.165094979742055739e-02
2.037199999999999989e+01,-5.291171396889150502e-01,-7.410396343286543286e-02,-4.430592578241189794e-01,-7.558158154171352484e-03
2.038400000000000034e+01,-5.271373590122565567e-01,-5.937828751476085382e-02,-4.485758847832311824e-01,-3.311148620885941054e-03
2.039600000000000080e+01,-5.247718337006173073e-01,-4.472934751828364780e-02,-4.539994862215643856e-01,1.088204402843362135e-03
2.040800000000000125e+01,-5.220213807283585750e-01,-3.016869861712784609e-02,-4.593255868898217797e-01,5.637887297111978530e-03
2.042000000000000171e+01,-5.188871969502095727e-01,-1.570791217904331932e-02,-4.645497636641867656e-01,1.033574973452962981e-02
2.043199999999999861e+01,-5.153708589785549465e-01,-1.358561253359591436e-03,-4.696676500082473393e-01,1.517950740870476975e-02
2.044399999999999906e+01,-5.114743223014084350e-01,1.286779379543321472e-02,-4.746749402200500789e-01,2.016674496387096255e-02
2.045599999999999952e+01,-5.071999196545720068e-01,2.695961945462947013e-02,-4.795673934504892100e-01,2.529491910984107278e-02
2.046799999999999997e+01,-5.025503586652979582e-01,4.090542297873755312e-02,-4.843408374803473415e-01,3.056136190584668455e-02
2.048000000000000043e+01,-4.975287187890000684e-01,5.469376600185565929e-02,-4.889911722442535913e-01,3.596328419550853112e-02
2.049200000000000088e+01,-4.921384475641960576e-01,6.831327779713895765e-02,-4.935143730910134252e-01,4.149777917456749093e-02
2.050400000000000134e+01,-4.863833562148393019e-01,8.175266813494280749e-02,-4.979064937708081451e-01,4.716182607214080419e-02
2.051599999999999824e+01,-4.802676146328041518e-01,9.500073969307100408e-02,-5.021636691410882314e-01,5.295229392544124197e-02
2.052799999999999869e+01,-4.737957457768648406e-01,1.080463999749057269e-01,-5.062821175840912513e-01,5.886594542742758229e-02
2.053999999999999915e+01,-4.669726195279899628e-01,1.208786726931904698e-01,-5.102581431302216641e-01,6.489944082611373566e-02
2.055199999999999960e+01,-4.598034460439233140e-01,1.334867085802207975e-01,-5.140881372828003393e-01,7.104934185383261769e-02
2.056400000000000006e+01,-4.522937686592183315e-01,1.458597955876941854e-01,-5.177685805409963926e-01,7.731211566430445936e-02
2.057600000000000051e+01,-4.444494563797430353e-01,1.579873684426171265e-01,-5.212960436189798541e-01,8.368413875495459009e-02
2.058800000000000097e+01,-4.362766960234393809e-01,1.698590175287378878e-01,-5.246671883607528786e-01,9.016170085161030745e-02
2.060000000000000142e+01,-4.277819840615578184e-01,1.814644970663648604e-01,-5.278787683512928819e-01,9.674100873251831323e-02
2.061199999999999832e+01,-4.189721182171289859e-01,1.927937325667594681e-01,-5.309276292260741714e-01,1.034181899682567740e-01
2.062399999999999878e+01,-4.098541888792248677e-01,2.038368275409768726e-01,-5.338107086821981540e-01,1.101892965541917124e-01
2.063599999999999923e+01,-4.004355703939809219e-01,2.145840694465404874e-01,-5.365250361957374370e-01,1.170503084117668069e-01
2.064799999999999969e+01,-3.907239122946343790e-01,2.250259348592686393e-01,-5.390677324511619073e-01,1.239971367350011372e-01
2.066000000000000014e+01,-3.807271305347757484e-01,2.351530938611410271e-01,-5.414360084899439984e-01,1.310256271584233911e-01
2.067200000000000060e+01,-3.704533987902765002e-01,2.449564136391748359e-01,-5.436271645867131186e-01,1.381315627226760434e-01
2.068400000000000105e+01,-3.599111398966176045e-01,2.544269612940331937e-01,-5.456385888626147374e-01,1.453106666139515335e-01
2.069600000000000151e+01,-3.491090174895419840e-01,2.635560058610909584e-01,-5.474677556467173467e-01,1.525586046534239681e-01
2.070799999999999841e+01,-3.380559279179277676e-01,2.723350195506567539e-01,-5.491122235976034771e-01,1.598709875127987401e-01
2.071999999999999886e+01,-3.267609924986242809e-01,2.807556782180378740e-01,-5.505696335985071910e-01,1.672433726320709246e-01
2.073199999999999932e+01,-3.152335501839885756e-01,2.888098610780763242e-01,-5.518377064406485566e-01,1.746712658154394582e-01
2.074399999999999977e+01,-3.034831507134022055e-01,2.964896496830137229e-01,-5.529142403106965808e-01,1.821501224813525111e-01
2.075600000000000023e+01,-2.915195483209892524e-01,3.037873261864255658e-01,-5.537971080996351159e-01,1.896753485423907926e-01
2.076800000000000068e+01,-2.793526960723552444e-01,3.106953709202689984e-01,-5.544842545516587284e-01,1.972423008905866970e-01
2.078000000000000114e+01,-2.669927409039266064e-01,3.172064593162119972e-01,-5.549736932732032280e-01,2.048462874634999487e-01
2.079200000000000159e+01,-2.544500194393053971e-01,3.233134582067597740e-01,-5.552635036237060229e-01,2.124825668660896838e-01
2.080399999999999849e+01,-2.417350546578052040e-01,3.290094215461125682e-01,-5.553518275113277225e-01,2.201463475230448774e-01
2.081599999999999895e+01,-2.288585534913368524e-01,3.342875855953004738e-01,-5.552368661186105614e-01,2.278327863358010630e-01
2.082799999999999940e+01,-2.158314054268647419e-01,3.391413636208782667e-01,-5.549168765849498142e-01,2.355369868179296999e-01
2.083999999999999986e+01,-2.026646821927302056e-01,3.435643401615957604e-01,-5.543901686747947366e-01,2.432539966820697064e-01
2.085200000000000031e+01,-1.893696386086125005e-01,3.475502649227331098e-01,-5.536551014628094958e-01,2.509788048508161951e-01
2.086400000000000077e+01,-1.759577146803005532e-01,3.510930463635585363e-01,-5.527100800697059002e-01,2.587063378633003841e-01
2.087600000000000122e+01,-1.624405390221773937e-01,3.541867450495394531e-01,-5.515535524852707150e-01,2.664314556483619034e-01
2.088800000000000168e+01,-1.488299336921871108e-01,3.568255668476568720e-01,-5.501840065182225237e-01,2.741489466343414172e-01
2.089999999999999858e+01,-1.351379205261366845e-01,3.590038560505224852e-01,-5.485999669160213088e-01,2.818535221646037980e-01
2.091199999999999903e+01,-1.213767290604156057e-01,3.607160885231027736e-01,-5.467999927016464756e-01,2.895398101869429142e-01
2.092399999999999949e+01,-1.075588061347337032e-01,3.619568649748077238e-01,-5.447826747787677393e-01,2.972023481840157522e-01
2.093599999999999994e+01,-9.369682726893305280e-02,3.627209044696915186e-01,-5.425466338616264927e-01,3.048355753110542632e-01
2.094800000000000040e+01,-7.980370991076077281e-02,3.630030382986216275e-01,-5.400905187915010508e-01,3.124338237061287660e-01
2.096000000000000085e+01,-6.589262865416964376e-02,3.627982043497408604e-01,-5.374130053078425284e-01,3.199913089374495923e-01
2.097200000000000131e+01,-5.197703253048439193e-02,3.621014421275146611e-01,-5.345127953491449757e-01,3.275021195515156469e-01
2.098400000000000176e+01,-3.807066447740426601e-02,3.609078885863570285e-01,-5.313886169664676640e-01,3.349602056854525944e-01
2.099599999999999866e+01,-2.418758309322267125e-02,3.592127749624758892e-01,-5.280392249413161654e-01,3.423593667067251212e-01
2.100799999999999912e+01,-1.034218678563322141e-02,3.570114248074381380e-01,-5.244634022094335490e-01,3.496932378436458655e-01
2.101999999999999957e+01,3.450759573985090218e-03,3.542992534492989121e-01,-5.206599622031079511e-01,3.569552757708068791e-01
2.103200000000000003e+01,1.717609537944000259e-02,3.510717691322449152e-01,-5.166277522368536435e-01,3.641387431150459597e-01
2.104400000000000048e+01,3.081823229075771400e-02,3.473245761139460153e-01,-5.123656580751106970e-01,3.712366918497064794e-01
2.105600000000000094e+01,4.436111939844492730e-02,3.430533800314663484e-01,-5.078726098358139485e-01,3.782419455482914361e-01
2.106800000000000139e+01,5.778820544595106301e-02,3.382539958821078052e-01,-5.031475894006635086e-01,3.851470804731395026e-01
2.107999999999999829e+01,7.108239801166260641e-02,3.329223590052647341e-01,-4.981896395216376394e-01,3.919444054809052558e-01
2.109199999999999875e+01,8.422601956128371314e-02,3.270545394957062868e-01,-4.929978748339892691e-01,3.986259407346851580e-01
2.110399999999999920e+01,9.720076029471336199e-02,3.206467605281212996e-01,-4.875714950087186028e-01,4.051833952229817459e-01
2.111599999999999966e+01,1.099876277298581506e-01,3.136954211275380100e-01,-4.819098003023711274e-01,4.116081430989599332e-01
2.112800000000000011e+01,1.225668929897006376e-01,3.061971239809994638e-01,-4.760122097892088844e-01,4.178911988699186564e-01
2.114000000000000057e+01,1.349180337903329030e-01,2.981487089527648515e-01,-4.698782825902098614e-01,4.240231914875154939e-01
2.115200000000000102e+01,1.470196741676297880e-01,2.895472930388072741e-01,-4.635077424450768091e-01,4.299943374145804298e-01
2.116400000000000148e+01,1.588495210308132621e-01,2.803903175766233047e-01,-4.569005060073755287e-01,4.357944127753289876e-01
2.117599999999999838e+01,1.703842976944220933e-01,2.706756036134861931e-01,-4.500567152788890746e-01,4.414127247333552440e-01
2.118799999999999883e+01,1.815996746186351318e-01,2.604014164301194922e-01,-4.429767746369598913e-01,4.468380822871986791e-01
2.119999999999999929e+01,1.924701976842363715e-01,2.495665403171500596e-01,-4.356613929476759739e-01,4.520587667276588784e-01
2.121199999999999974e+01,2.029692144464302905e-01,2.381703648075100821e-01,-4.281116312972908511e-01,4.570625020660844529e-01
2.122400000000000020e+01,2.130687989543882388e-01,2.262129836787035442e-01,-4.203289569136754444e-01,4.618364258199540440e-01
2.123600000000000065e+01,2.227396758958175293e-01,2.136953081519257225e-01,-4.123153038873750287e-01,4.663670606331756230e-01
2.124800000000000111e+01,2.319511450321319335e-01,2.006191958287051047e-01,-4.040731413364083702e-01,4.706402873155619004e-01
2.126000000000000156e+01,2.406710071359288439e-01,1.869875970158555722e-01,-3.956055496881460409e-01,4.746413200109080854e-01
2.127199999999999847e+01,2.488654929337122956e-01,1.728047201916899922e-01,-3.869163057726589527e-01,4.783546843483222899e-01
2.128399999999999892e+01,2.564991968999777439e-01,1.580762184542465754e-01,-3.780099774312018490e-01,4.817641995990122328e-01
2.129599999999999937e+01,2.635350181499781508e-01,1.428093988575043494e-01,-3.688920283368571917e-01,4.848529660528299590e-01
2.130799999999999983e+01,2.699341111448599340e-01,1.270134565736550647e-01,-3.595689336958963755e-01,4.876033590474772028e-01
2.132000000000000028e+01,2.756558494605752530e-01,1.106997358054604280e-01,-3.500483074420110974e-01,4.899970313298017688e-01
2.133200000000000074e+01,2.806578064869967304e-01,9.388201929572341509e-02,-3.403390414427532318e-01,4.920149257040912216e-01
2.134400000000000119e+01,2.848957576204634301e-01,7.657684812076397118e-02,-3.304514570988939526e-01,4.936373002264356491e-01
2.135600000000000165e+01,2.883237092939400781e-01,5.880387318689257736e-02,-3.203974695217565172e-01,4.948437685355946969e-01
2.136799999999999855e+01,2.908939610529903130e-01,4.058623944361992864e-02,-3.101907642078480243e-01,4.956133582657393233e-01
2.137999999999999901e+01,2.925572078271146403e-01,2.195100324993535038e-02,-2.998469857794450188e-01,4.959245908587482932e-01
2.139199999999999946e+01,2.932626905520724914e-01,2.929582540335824714e-03,-2.893839379081039609e-01,4.957555864734416451e-01
2.140399999999999991e+01,2.929584043479905309e-01,-1.644176161025514421e-02,-2.788217929673440509e-01,4.950841980621771277e-01
2.141600000000000037e+01,2.915913745167842408e-01,-3.612141477893470592e-02,-2.681833092531135665e-01,4.938881790313289222e-01
2.142800000000000082e+01,2.891080116419260104e-01,-5.606187481779910387e-02,-2.574940527477111440e-01,4.921453891947306647e-01
2.144000000000000128e+01,2.854545579861458293e-01,-7.620919991288882533e-02,-2.467826193687906178e-01,4.898340439329565976e-01
2.145199999999999818e+01,2.805776380975064654e-01,-9.650244828384904605e-02,-2.360808524272147157e-01,4.869330115421445226e-01
2.146399999999999864e+01,2.744249269339443242e-01,-1.168731218373948860e-01,-2.254240486104443775e-01,4.834221636389552934e-01
2.147599999999999909e+01,2.669459487526731900e-01,-1.372446297319147024e-01,-2.148511442161277207e-01,4.792827831177455256e-01
2.148799999999999955e+01,2.580930193030498421e-01,-1.575317919898881480e-01,-2.044048716027923596e-01,4.744980334557304946e-01
2.150000000000000000e+01,2.478223422964222211e-01,-1.776404079690376558e-01,-1.941318739405575589e-01,4.690534920464063950e-01
2.151200000000000045e+01,2.360952684610203856e-01,-1.974669195764028884e-01,-1.840827643995681107e-01,4.629377486195197511e-01
2.152400000000000091e+01,2.228797214606086097e-01,-2.168982044118004104e-01,-1.743121140054509910e-01,4.561430675856369410e-01
2.153600000000000136e+01,2.081517892939370729e-01,-2.358115392942986277e-01,-1.648783506557727485e-01,4.486661102412488611e-01
2.154800000000000182e+01,1.918974722483700601e-01,-2.540747794808327353e-01,-1.558435504088296619e-01,4.405087091225344254e-01
2.155999999999999872e+01,1.741145688613564557e-01,-2.715468028245905940e-01,-1.472731013512651177e-01,4.316786823741686208e-01
2.157199999999999918e+01,1.548146695552739538e-01,-2.880782705013268941e-01,-1.392352203920933784e-01,4.221906708303164169e-01
2.158399999999999963e+01,1.340252137232624818e-01,-3.035127559840852252e-01,-1.318003045202665036e-01,4.120669746911678200e-01
2.159600000000000009e+01,1.117915503523737725e-01,-3.176882907991271376e-01,-1.250401007197205761e-01,4.013383604223915713e-01
2.160800000000000054e+01,8.817892537129870534e-02,-3.304393683290404171e-01,-1.190266831675030196e-01,3.900448021296406553e-01
2.162000000000000099e+01,6.327430175861085970e-02,-3.415994346681078819e-01,-1.138312328020713998e-01,3.782361156229045451e-01
2.163200000000000145e+01,3.718790240213977472e-02,-3.510038775745448203e-01,-1.095226229920650135e-01,3.659724382806527898e-01
2.164399999999999835e+01,1.005435251982208372e-02,-3.584935005318024004e-01,-1.061658258487783030e-01,3.533245043669020480e-01
2.165599999999999881e+01,-1.796670976336179823e-02,-3.639184389726178859e-01,-1.038201664699122534e-01,3.403736644416667789e-01
2.166799999999999926e+01,-4.669068704272172354e-02,-3.671424406878758817e-01,-1.025374665583272810e-01,3.272115997436513268e-01
2.167999999999999972e+01,-7.590886426196841175e-02,-3.680473940518472764e-01,-1.023601335910817589e-01,3.139396886323195246e-01
2.169200000000000017e+01,-1.053901421601206589e-01,-3.665379486010184595e-01,-1.033192658685909843e-01,3.006679928615979547e-01
2.170400000000000063e+01,-1.348837338226792915e-01,-3.625460362536851999e-01,-1.054328559317680714e-01,2.875138467779672635e-01
2.171600000000000108e+01,-1.641228505584201025e-01,-3.560350722787098965e-01,-1.087041834203382046e-01,2.746000521751250645e-01
2.172800000000000153e+01,-1.928293472622824301e-01,-3.470035975163185404e-01,-1.131204918921559360e-01,2.620527046125317172e-01
2.173999999999999844e+01,-2.207192336162094870e-01,-3.354881215181472198e-01,-1.186520410973162659e-01,2.499987020370147972e-01
2.175199999999999889e+01,-2.475088908437787505e-01,-3.215649434038627685e-01,-1.252516158344391950e-01,2.385630115254159800e-01
2.176399999999999935e+01,-2.729217705222229950e-01,-3.053507648162125943e-01,-1.328545546359114482e-01,2.278657925145703422e-01
2.177599999999999980e+01,-2.966952990903281573e-01,-2.870019666069480446e-01,-1.413793368047488730e-01,2.180194925210775792e-01
2.178800000000000026e+01,-3.185876758496192784e-01,-2.667124944466154335e-01,-1.507287363242421074e-01,2.091260418232417650e-01
2.180000000000000071e+01,-3.383842388433829784e-01,-2.447103826127935422e-01,-1.607915182465693982e-01,2.012742751990482803e-01
2.181200000000000117e+01,-3.559030851710860976e-01,-2.212530320730654587e-01,-1.714446202629369143e-01,1.945377007828215654e-01
2.182400000000000162e+01,-3.709996702899309162e-01,-1.966214400097156256e-01,-1.825557323925564301e-01,1.889727186779957269e-01
2.183599999999999852e+01,-3.835701717399997990e-01,-1.711136447795901516e-01,-1.939861640100156437e-01,1.846173665006091702e-01
2.184799999999999898e+01,-3.935534807083057030e-01,-1.450376961226320649e-01,-2.055938720439801914e-01,1.814906378361547112e-01
2.185999999999999943e+01,-4.009317720507792893e-01,-1.187044809084449315e-01,-2.172365184656027681e-01,1.795923856295561227e-01
