Frequency, Re(SMin1Min1), Im(SMin1Min1), Re(SMax1Min1), Im(SMax1Min1)
2.000000000000000000e+01,-4.006681793166801953e-01,-5.216962383057093255e-01,-2.440324775989358708e-01,-5.619869805468918206e-02
2.001200000000000045e+01,-4.105813747709326500e-01,-5.100423386974239914e-01,-2.501895643337425090e-01,-5.751733444455292554e-02
2.002400000000000091e+01,-4.202051110087950403e-01,-4.981185420316975310e-01,-2.564095958197685210e-01,-5.866748858342850370e-02
2.003600000000000136e+01,-4.295297244461638297e-01,-4.859329476796056535e-01,-2.626876501027130550e-01,-5.964673436545366025e-02
2.004799999999999827e+01,-4.385458215424934969e-01,-4.734940538882732031e-01,-2.690187072032519389e-01,-6.045281457591199920e-02
2.005999999999999872e+01,-4.472442977902056915e-01,-4.608107459933082350e-01,-2.753976564691327789e-01,-6.108364519755119654e-02
2.007199999999999918e+01,-4.556163560288280512e-01,-4.478922835432196936e-01,-2.818193041530712706e-01,-6.153731930816002532e-02
2.008399999999999963e+01,-4.636535240090124965e-01,-4.347482863817347942e-01,-2.882783811901843407e-01,-6.181211055470518106e-02
2.009600000000000009e+01,-4.713476711349965931e-01,-4.213887197399118212e-01,-2.947695511463538365e-01,-6.190647619121925072e-02
2.010800000000000054e+01,-4.786910243181103364e-01,-4.078238783954982738e-01,-3.012874183090160085e-01,-6.181905966965605542e-02
2.012000000000000099e+01,-4.856761828784418311e-01,-3.940643699622645157e-01,-3.078265358901687843e-01,-6.154869277533397964e-02
2.013200000000000145e+01,-4.922961324366763591e-01,-3.801210973768556212e-01,-3.143814143119512683e-01,-6.109439730055290368e-02
2.014399999999999835e+01,-4.985442577434365807e-01,-3.660052406552512516e-01,-3.209465295429500542e-01,-6.045538625191902715e-02
2.015599999999999881e+01,-5.044143543993370171e-01,-3.517282379946873871e-01,-3.275163314553496963e-01,-5.963106459002692761e-02
2.016799999999999926e+01,-5.099006394246865526e-01,-3.373017663006006583e-01,-3.340852521710024892e-01,-5.862102950194606615e-02
2.017999999999999972e+01,-5.149977606444284817e-01,-3.227377212208142887e-01,-3.406477143659985551e-01,-5.742507020847634897e-02
2.019200000000000017e+01,-5.197008048601782226e-01,-3.080481967717340619e-01,-3.471981395026437767e-01,-5.604316731215849140e-02
2.020400000000000063e+01,-5.240053047879569270e-01,-2.932454646431308376e-01,-3.537309559589491559e-01,-5.447549169231219457e-02
2.021600000000000108e+01,-5.279072447471503393e-01,-2.783419532691039366e-01,-3.602406070262293425e-01,-5.272240295711654728e-02
2.022800000000000153e+01,-5.314030650928012189e-01,-2.633502267537712882e-01,-3.667215587456578718e-01,-5.078444746381173547e-02
2.023999999999999844e+01,-5.344896653904496198e-01,-2.482829637399821820e-01,-3.731683075567719388e-01,-4.866235592049515668e-02
2.025199999999999889e+01,-5.371644063394106494e-01,-2.331529363090763807e-01,-3.795753877303758572e-01,-4.635704058463708394e-02
2.026399999999999935e+01,-5.394251104568825728e-01,-2.179729889984567959e-01,-3.859373785616004304e-01,-4.386959207612597250e-02
2.027599999999999980e+01,-5.412700615421840444e-01,-2.027560180222510167e-01,-3.922489112983663095e-01,-4.120127582269197258e-02
2.028800000000000026e+01,-5.426980029462932231e-01,-1.875149507781730673e-01,-3.985046757830809083e-01,-3.835352815924526759e-02
2.030000000000000071e+01,-5.437081346781812430e-01,-1.722627257209191354e-01,-4.046994267869943873e-01,-3.532795210151052495e-02
2.031200000000000117e+01,-5.443001093850519112e-01,-1.570122726797072432e-01,-4.108279900174883759e-01,-3.212631281854622101e-02
2.032400000000000162e+01,-5.444740272491610522e-01,-1.417764936935825559e-01,-4.168852677814268159e-01,-2.875053282707854679e-02
2.033599999999999852e+01,-5.442304298486050351e-01,-1.265682444346709623e-01,-4.228662442887787254e-01,-2.520268693380231170e-02
2.034799999999999898e+01,-5.435702930347622308e-01,-1.114003162850751849e-01,-4.287659905826127216e-01,-2.148499695074672713e-02
2.035999999999999943e+01,-5.424950188824122499e-01,-9.628541912859678309e-02,-4.345796690839153209e-01,-1.759982621177545031e-02
2.037199999999999989e+01,-5.410064267733876164e-01,-8.123616491390794891e-02,-4.403025377411307617e-01,-1.354967391554505289e-02
2.038400000000000034e+01,-5.391067436771095345e-01,-6.626505204050929521e-02,-4.459299537761849952e-01,-9.337169324772449583e-03
2.039600000000000080e+01,-5.367985936948700409e-01,-5.138445061384182277e-02,-4.514573770211071091e-01,-4.965065847591517215e-03
2.040800000000000125e+01,-5.340849869368693437e-01,-3.660658861079719301e-02,-4.568803728407825337e-01,-4.362350305542553471e-04
2.042000000000000171e+01,-5.309693078032541314e-01,-2.194353899120739596e-02,-4.621946146391728849e-01,4.246339509509403434e-03
2.043199999999999861e+01,-5.274553027417226980e-01,-7.407207785946168244e-03,-4.673958859485284334e-01,9.079568186897148466e-03
2.044399999999999906e+01,-5.235470675558159259e-01,6.990676813480314715e-03,-4.724800821023381059e-01,1.406026155387963064e-02
2.045599999999999952e+01,-5.192490343382154538e-01,2.123857434377597608e-02,-4.774432114948969352e-01,1.918513638600544829e-02
2.046799999999999997e+01,-5.145659581042947295e-01,3.532514092265051642e-02,-4.822813964311694623e-01,2.445082171921545908e-02
2.048000000000000043e+01,-5.095029032006471725e-01,4.923923705590806110e-02,-4.869908735733773364e-01,2.985386481208059453e-02
2.049200000000000088e+01,-5.040652295632939150e-01,6.296993439420053851e-02,-4.915679939905511220e-01,3.539073700827066737e-02
2.050400000000000134e+01,-4.982585788993530995e-01,7.650652143931502280e-02,-4.960092228201695708e-01,4.105783947374216925e-02
2.051599999999999824e+01,-4.920888608651899365e-01,8.983850820479462318e-02,-5.003111385510722320e-01,4.685150878484038717e-02
2.052799999999999869e+01,-4.855622393126530767e-01,1.029556298394883329e-01,-5.044704319386332791e-01,5.276802234371970324e-02
2.053999999999999915e+01,-4.786851186737410835e-01,1.158478492270349908e-01,-5.084839045638215316e-01,5.880360359848080254e-02
2.055199999999999960e+01,-4.714641305522366821e-01,1.285053585780409346e-01,-5.123484670491345039e-01,6.495442704618993590e-02
2.056400000000000006e+01,-4.639061205893064699e-01,1.409185800350199747e-01,-5.160611369446571617e-01,7.121662299789545403e-02
2.057600000000000051e+01,-4.560181356679933184e-01,1.530781653138001686e-01,-5.196190362992307854e-01,7.758628208518485170e-02
2.058800000000000097e+01,-4.478074115196629679e-01,1.649749944078536812e-01,-5.230193889310128519e-01,8.405945948877033280e-02
2.060000000000000142e+01,-4.392813607934868414e-01,1.766001733849182354e-01,-5.262595174138949838e-01,9.063217887082485047e-02
2.061199999999999832e+01,-4.304475616480756828e-01,1.879450313077522805e-01,-5.293368397954706372e-01,9.730043599251413100e-02
2.062399999999999878e+01,-4.213137469223108833e-01,1.990011163131932270e-01,-5.322488660636637281e-01,1.040602019995534588e-01
2.063599999999999923e+01,-4.118877939406415667e-01,2.097601908856930597e-01,-5.349931943789549837e-01,1.109074263591264681e-01
2.064799999999999969e+01,-4.021777150062890160e-01,2.202142263634622177e-01,-5.375675070898292551e-01,1.178380394315333285e-01
2.066000000000000014e+01,-3.921916486340807362e-01,2.303553967169957306e-01,-5.399695665494942398e-01,1.248479546610238439e-01
2.067200000000000060e+01,-3.819378515731595702e-01,2.401760716412402463e-01,-5.421972107520079964e-01,1.319330703700660190e-01
2.068400000000000105e+01,-3.714246916684739719e-01,2.496688090042137598e-01,-5.442483488065110731e-01,1.390892711419308425e-01
2.069600000000000151e+01,-3.606606416088358746e-01,2.588263466960328829e-01,-5.461209562684867791e-01,1.463124287762679610e-01
2.070799999999999841e+01,-3.496542736083874670e-01,2.676415939237263841e-01,-5.478130703475320162e-01,1.535984028027487791e-01
2.071999999999999886e+01,-3.384142550677453620e-01,2.761076219983216729e-01,-5.493227850113251431e-01,1.609430405375394391e-01
2.073199999999999932e+01,-3.269493452606784256e-01,2.842176546620260869e-01,-5.506482460059164419e-01,1.683421766671701070e-01
2.074399999999999977e+01,-3.152683930920616162e-01,2.919650580046474486e-01,-5.517876458134567397e-01,1.757916323442709206e-01
2.075600000000000023e+01,-3.033803359731502836e-01,2.993433300197874125e-01,-5.527392185685471304e-01,1.832872137789216815e-01
2.076800000000000068e+01,-2.912941998606699001e-01,3.063460898530205867e-01,-5.535012349556465150e-01,1.908247103090952579e-01
2.078000000000000114e+01,-2.790191005071223085e-01,3.129670667960436914e-01,-5.540719971105996233e-01,1.983998919327441546e-01
2.079200000000000159e+01,-2.665642459708882361e-01,3.192000890829293502e-01,-5.544498335506274911e-01,2.060085062834703939e-01
2.080399999999999849e+01,-2.539389404362371594e-01,3.250390725470838071e-01,-5.546330941583376140e-01,2.136462750306928893e-01
2.081599999999999895e+01,-2.411525893951759203e-01,3.304780092003873349e-01,-5.546201452468758619e-01,2.213088896842567710e-01
2.082799999999999940e+01,-2.282147062453394604e-01,3.355109557993802838e-01,-5.544093647351154841e-01,2.289920067822106553e-01
2.083999999999999986e+01,-2.151349203605106009e-01,3.401320224673763382e-01,-5.539991374639020583e-01,2.366912424393379788e-01
2.085200000000000031e+01,-2.019229866932611139e-01,3.443353614459677137e-01,-5.533878506868286085e-01,2.444021662326239519e-01
2.086400000000000077e+01,-1.885887969722435109e-01,3.481151560548689794e-01,-5.525738897718041054e-01,2.521202943984667821e-01
2.087600000000000122e+01,-1.751423925599976117e-01,3.514656099453265514e-01,-5.515556341529589401e-01,2.598410823149996940e-01
2.088800000000000168e+01,-1.615939790406808463e-01,3.543809367396348331e-01,-5.503314535761826276e-01,2.675599162414089016e-01
2.089999999999999858e+01,-1.479539426108245626e-01,3.568553501577457210e-01,-5.488997046858530293e-01,2.752721042846428268e-01
2.091199999999999903e+01,-1.342328683499703357e-01,3.588830547416582695e-01,-5.472587280051993686e-01,2.829728665625033668e-01
2.092399999999999949e+01,-1.204415604519168681e-01,3.604582372993986317e-01,-5.454068453682942019e-01,2.906573245307004227e-01
2.093599999999999994e+01,-1.065910645008595059e-01,3.615750592031342081e-01,-5.433423578679172916e-01,2.983204894403020946e-01
2.094800000000000040e+01,-9.269269188032631945e-02,3.622276496904165977e-01,-5.410635443906715025e-01,3.059572498909813865e-01
2.096000000000000085e+01,-7.875804640583790317e-02,3.624101003339927352e-01,-5.385686608186481816e-01,3.135623584446569079e-01
2.097200000000000131e+01,-6.479905327480552091e-02,3.621164608642218341e-01,-5.358559399859407213e-01,3.211304172639140586e-01
2.098400000000000176e+01,-5.082799042897442887e-02,3.613407365490921563e-01,-5.329235924883013453e-01,3.286558627395897436e-01
2.099599999999999866e+01,-3.685752242547185586e-02,3.600768873604395237e-01,-5.297698084554434139e-01,3.361329490727267832e-01
2.100799999999999912e+01,-2.290073691189863092e-02,3.583188291814038418e-01,-5.263927604079099432e-01,3.435557307776625491e-01
2.101999999999999957e+01,-8.971183798673707660e-03,3.560604373397431299e-01,-5.227906073342600823e-01,3.509180440753954522e-01
2.103200000000000003e+01,4.917082782794944019e-03,3.532955527845264565e-01,-5.189615001396004068e-01,3.582134871502541396e-01
2.104400000000000048e+01,1.874945965460089042e-02,3.500179912603347820e-01,-5.149035886332580247e-01,3.654353992478035495e-01
2.105600000000000094e+01,3.251074682856568143e-02,3.462215558735523002e-01,-5.106150302419438791e-01,3.725768385989725040e-01
2.106800000000000139e+01,4.618509674782027286e-02,3.419000534898919974e-01,-5.060940006548483305e-01,3.796305591642039068e-01
2.107999999999999829e+01,5.975596049685492211e-02,3.370473154512721448e-01,-5.013387066291576932e-01,3.865889862030310042e-01
2.109199999999999875e+01,7.320603096853631198e-02,3.316572231535571125e-01,-4.963474012081592890e-01,3.934441906887931606e-01
2.110399999999999920e+01,8.651718300898554592e-02,3.257237390847441127e-01,-4.911184016297425181e-01,4.001878626061897148e-01
2.111599999999999966e+01,9.967041060213226167e-02,3.192409439857928910e-01,-4.856501102303679707e-01,4.068112831915206007e-01
2.112800000000000011e+01,1.126457612064320213e-01,3.122030808635026800e-01,-4.799410386784694338e-01,4.133052962022220611e-01
2.114000000000000057e+01,1.254222674186751818e-01,3.046046066561572396e-01,-4.739898359016062601e-01,4.196602783349396848e-01
2.115200000000000102e+01,1.379778762158861694e-01,2.964402524277971462e-01,-4.677953201030239927e-01,4.258661089504496844e-01
2.116400000000000148e+01,1.502893761182141352e-01,2.877050930449759347e-01,-4.613565152952912030e-01,4.319121393101829631e-01
2.117599999999999838e+01,1.623323227259729773e-01,2.783946273697501805e-01,-4.546726928106353260e-01,4.377871615845039255e-01
2.118799999999999883e+01,1.740809632153856867e-01,2.685048700826994095e-01,-4.477434182786327321e-01,4.434793779577000938e-01
2.119999999999999929e+01,1.855081605328870176e-01,2.580324563280651518e-01,-4.405686045909989468e-01,4.489763702308061655e-01
2.121199999999999974e+01,1.965853182106749308e-01,2.469747604465448443e-01,-4.331485713987739961e-01,4.542650704120421157e-01
2.122400000000000020e+01,2.072823069393807671e-01,2.353300301266677552e-01,-4.254841117074854573e-01,4.593317328868188332e-01
2.123600000000000065e+01,2.175673942812255124e-01,2.230975373580140197e-01,-4.175765661486108282e-01,4.641619088770794765e-01
2.124800000000000111e+01,2.274071791919830554e-01,2.102777476033989290e-01,-4.094279055079525498e-01,4.687404240338935990e-01
2.126000000000000156e+01,2.367665333458130739e-01,1.968725086152480763e-01,-4.010408220800039114e-01,4.730513601590651818e-01
2.127199999999999847e+01,2.456085516263909196e-01,1.828852602951559214e-01,-3.924188303878589079e-01,4.770780422222521966e-01
2.128399999999999892e+01,2.538945145628170308e-01,1.683212669245627013e-01,-3.835663777557837828e-01,4.808030320296690086e-01
2.129599999999999937e+01,2.615838659504446384e-01,1.531878729663286864e-01,-3.744889651404391673e-01,4.842081301092370227e-01
2.130799999999999983e+01,2.686342094045022222e-01,1.374947834368768773e-01,-3.651932785100863721e-01,4.872743876037831101e-01
2.132000000000000028e+01,2.750013281449659730e-01,1.212543695601780297e-01,-3.556873309015561868e-01,4.899821302064906181e-01
2.133200000000000074e+01,2.806392328988176477e-01,1.044820000186445635e-01,-3.459806150734289765e-01,4.923109964276773942e-01
2.134400000000000119e+01,2.855002434203960382e-01,8.719639759106539989e-02,-3.360842664016256975e-01,4.942399927434575901e-01
2.135600000000000165e+01,2.895351097569943688e-01,6.942002029092612936e-02,-3.260112353203598046e-01,4.957475684369315738e-01
2.136799999999999855e+01,2.926931800037374520e-01,5.117946526561334419e-02,-3.157764681869322798e-01,4.968117131902245465e-01
2.137999999999999901e+01,2.949226218700641833e-01,3.250589266363104052e-02,-3.053970949331153983e-01,4.974100807064748553e-01
2.139199999999999946e+01,2.961707058816774873e-01,1.343546540001263299e-02,-2.948926212499131116e-01,4.975201418159594380e-01
2.140399999999999991e+01,2.963841584182033695e-01,-5.990200770820074648e-03,-2.842851223289143969e-01,4.971193706268447476e-01
2.141600000000000037e+01,2.955095929779419928e-01,-2.572358424377537561e-02,-2.735994343489306369e-01,4.961854672898367014e-01
2.142800000000000082e+01,2.934940279947147457e-01,-4.571081102329942886e-02,-2.628633389515443453e-01,4.946966208240250462e-01
2.144000000000000128e+01,2.902854991233687065e-01,-6.589122635893884805e-02,-2.521077349019914537e-01,4.926318151593372385e-01
2.145199999999999818e+01,2.858337730639637364e-01,-8.619699877937644916e-02,-2.413667899992425758e-01,4.899711810463373007e-01
2.146399999999999864e+01,2.800911686051750782e-01,-1.065527734400689985e-01,-2.306780651101300317e-01,4.866963957201717594e-01
2.147599999999999909e+01,2.730134885256599309e-01,-1.268753944807893552e-01,-2.200826010002271682e-01,4.827911311353744184e-01
2.148799999999999955e+01,2.645610631907014954e-01,-1.470737188398895390e-01,-2.096249574789421366e-01,4.782415501672434566e-01
2.150000000000000000e+01,2.546999030251816398e-01,-1.670485465284154425e-01,-1.993531933474440021e-01,4.730368483667330426e-01
2.151200000000000045e+01,2.434029524619753526e-01,-1.866926945214647804e-01,-1.893187748350677324e-01,4.671698366348215892e-01
2.152400000000000091e+01,2.306514324271462801e-01,-2.058912429204765582e-01,-1.795763997519631006e-01,4.606375575461316707e-01
2.153600000000000136e+01,2.164362519588943767e-01,-2.245219825810245706e-01,-1.701837246098267253e-01,4.534419250257010758e-01
2.154800000000000182e+01,2.007594622748681001e-01,-2.424560926559598817e-01,-1.612009826166575788e-01,4.455903737312382207e-01
2.155999999999999872e+01,1.836357187110989053e-01,-2.595590741291848302e-01,-1.526904818865750801e-01,4.370965009265190826e-01
2.157199999999999918e+01,1.650937077818896981e-01,-2.756919610801233378e-01,-1.447159755618178112e-01,4.279806800142658685e-01
2.158399999999999963e+01,1.451774886092181971e-01,-2.907128248413682337e-01,-1.373418989333866358e-01,4.182706214512382226e-01
2.159600000000000009e+01,1.239476907275575551e-01,-3.044785772067156726e-01,-1.306324731318403154e-01,4.080018537725987327e-01
2.160800000000000054e+01,1.014825044866348447e-01,-3.168470673734639087e-01,-1.246506805319856914e-01,3.972180952332915460e-01
2.162000000000000099e+01,7.787839673230377568e-02,-3.276794535217177895e-01,-1.194571235695013889e-01,3.859714854874354284e-01
2.163200000000000145e+01,5.325048395301067855e-02,-3.368428142490836885e-01,-1.151087859852562983e-01,3.743226471315655446e-01
2.164399999999999835e+01,2.773249839248430673e-02,-3.442129481738606667e-01,-1.116577232487835775e-01,3.623405491588534422e-01
2.165599999999999881e+01,1.476290356249692400e-03,-3.496772928594212293e-01,-1.091497165945298775e-01,3.501021486543862138e-01
2.166799999999999926e+01,-2.534917756650630766e-02,-3.531378780180013388e-01,-1.076229321531545768e-01,3.376917935242099156e-01
2.167999999999999972e+01,-5.255937139054728952e-02,-3.545142141308875172e-01,-1.071066324215589616e-01,3.252003776371363841e-01
2.169200000000000017e+01,-7.995626719316611952e-02,-3.537460076538763154e-01,-1.076199911184440722e-01,3.127242502042011929e-01
2.170400000000000063e+01,-1.073309536755147620e-01,-3.507955892644823437e-01,-1.091710636992120204e-01,3.003638930357443448e-01
2.171600000000000108e+01,-1.344667094873518987e-01,-3.456499433003374366e-01,-1.117559639719421100e-01,2.882223917951434178e-01
2.172800000000000153e+01,-1.611424819974544009e-01,-3.383222353565188967e-01,-1.153582920960157937e-01,2.764037396308344774e-01
2.173999999999999844e+01,-1.871366692038612667e-01,-3.288527510913149543e-01,-1.199488507678961591e-01,2.650110226315531836e-01
2.175199999999999889e+01,-2.122310856384645450e-01,-3.173091820933184870e-01,-1.254856749343636890e-01,2.541445454262865611e-01
2.176399999999999935e+01,-2.362149784063172220e-01,-3.037862229465927433e-01,-1.319143865722055831e-01,2.438999610610363411e-01
2.177599999999999980e+01,-2.588889524640390349e-01,-2.884044755265189330e-01,-1.391688708626663828e-01,2.343664713696515522e-01
2.178800000000000026e+01,-2.800686657983091354e-01,-2.713086897365377115e-01,-1.471722545913708990e-01,2.256251620695006455e-01
2.180000000000000071e+01,-2.995881654538621319e-01,-2.526654018005038416e-01,-1.558381530208387544e-01,2.177475307790878167e-01
2.181200000000000117e+01,-3.173027536965549733e-01,-2.326600593585143317e-01,-1.650721389601847999e-01,2.107942564810849628e-01
2.182400000000000162e+01,-3.330912985394656745e-01,-2.114937448145801646e-01,-1.747733782590759899e-01,2.048142463921604761e-01
2.183599999999999852e+01,-3.468579323709581330e-01,-1.893796230655751256e-01,-1.848363701549260441e-01,1.998439817616601832e-01
2.184799999999999898e+01,-3.585331141075074335e-01,-1.665392460505764338e-01,-1.951527291216967330e-01,1.959071689606403655e-01
2.185999999999999943e+01,-3.680740616695149514e-01,-1.431988444398580862e-01,-2.056129470470858256e-01,1.930146875095340997e-01
