Frequency, Re(SMin1Min1), Im(SMin1Min1), Re(SMax1Min1), Im(SMax1Min1)
2.000000000000000000e+01,-3.342162383990482932e-01,2.589891644136860793e-01,-6.172168339940949933e-01,1.067175647320976195e-01
2.001200000000000045e+01,-3.245881183038842321e-01,2.680529133458412483e-01,-6.189193036551531302e-01,1.138601961834036780e-01
2.002400000000000091e+01,-3.147491695126188316e-01,2.768251603894595902e-01,-6.204605446028519378e-01,1.210507952384582697e-01
2.003600000000000136e+01,-3.047086306992248805e-01,2.853012607227229935e-01,-6.218395035022745709e-01,1.282845602591677903e-01
2.004799999999999827e+01,-2.944757601230214017e-01,2.934769234978648056e-01,-6.230553181499887128e-01,1.355567027166624250e-01
2.005999999999999872e+01,-2.840598187558907028e-01,3.013482033076398947e-01,-6.241073130946706016e-01,1.428624576384271705e-01
2.007199999999999918e+01,-2.734700543387649230e-01,3.089114907793886200e-01,-6.249949945650949967e-01,1.501970935865866719e-01
2.008399999999999963e+01,-2.627156864041230722e-01,3.161635023762547347e-01,-6.257180447511443422e-01,1.575559221194161030e-01
2.009600000000000009e+01,-2.518058922946457279e-01,3.231012694849305089e-01,-6.262763154866971549e-01,1.649343066926150791e-01
2.010800000000000054e+01,-2.407497942018295978e-01,3.297221268686874041e-01,-6.266698213857471167e-01,1.723276709621214264e-01
2.012000000000000099e+01,-2.295564472424223845e-01,3.360237005636095842e-01,-6.268987324855476162e-01,1.797315064550137065e-01
2.013200000000000145e+01,-2.182348285847994229e-01,3.420038952941364951e-01,-6.269633664517660909e-01,1.871413795805861036e-01
2.014399999999999835e+01,-2.067938276322191515e-01,3.476608814824886928e-01,-6.268641804019284836e-01,1.945529379582241758e-01
2.015599999999999881e+01,-1.952422372648815463e-01,3.529930819239167072e-01,-6.266017624037819589e-01,2.019619160445322581e-01
2.016799999999999926e+01,-1.835887461385142250e-01,3.579991581974090731e-01,-6.261768227053983171e-01,2.093641400463035207e-01
2.017999999999999972e+01,-1.718419320329714617e-01,3.626779968786975616e-01,-6.255901847531033511e-01,2.167555321113003586e-01
2.019200000000000017e+01,-1.600102562407564599e-01,3.670286956193472561e-01,-6.248427760527177632e-01,2.241321137931025775e-01
2.020400000000000063e+01,-1.481020589824643408e-01,3.710505491526895905e-01,-6.239356189282199150e-01,2.314900087905809034e-01
2.021600000000000108e+01,-1.361255558331987414e-01,3.747430352839160594e-01,-6.228698212301393422e-01,2.388254449666712131e-01
2.022800000000000153e+01,-1.240888351417794161e-01,3.781058009189890434e-01,-6.216465670445066038e-01,2.461347556547532067e-01
2.023999999999999844e+01,-1.119998564228506105e-01,3.811386481828470951e-01,-6.202671074503366411e-01,2.534143802643307741e-01
2.025199999999999889e+01,-9.986644970032158841e-02,3.838415206751048525e-01,-6.187327513718566818e-01,2.606608642007265941e-01
2.026399999999999935e+01,-8.769631577971108427e-02,3.862144899074260729e-01,-6.170448565687259856e-01,2.678708581161301505e-01
2.027599999999999980e+01,-7.549702742601120675e-02,3.882577419645091288e-01,-6.152048208047855571e-01,2.750411165116443679e-01
2.028800000000000026e+01,-6.327603142369221667e-02,3.899715644267883752e-01,-6.132140732333749567e-01,2.821684957118874570e-01
2.030000000000000071e+01,-5.104065149510961241e-02,3.913563335911055541e-01,-6.110740660340274744e-01,2.892499512352186275e-01
2.031200000000000117e+01,-3.879809205400498034e-02,3.924125020221921889e-01,-6.087862663329386415e-01,2.962825345838118185e-01
2.032400000000000162e+01,-2.655544277143490062e-02,3.931405864660775240e-01,-6.063521484364304825e-01,3.032633894788779316e-01
2.033599999999999852e+01,-1.431968393220373059e-02,3.935411561540061998e-01,-6.037731864043071051e-01,3.101897475664105452e-01
2.034799999999999898e+01,-2.097692560944638355e-03,3.936148215236928150e-01,-6.010508469870998738e-01,3.170589236194931160e-01
2.035999999999999943e+01,1.010375070164921084e-02,3.933622233831817194e-01,-5.981865829489728670e-01,3.238683102628283628e-01
2.037199999999999989e+01,2.227795399041209920e-02,3.927840225411950437e-01,-5.951818267956070496e-01,3.306153722448315624e-01
2.038400000000000034e+01,3.441830589168836524e-02,3.918808899268977908e-01,-5.920379849245022141e-01,3.372976402821931119e-01
2.039600000000000080e+01,4.651826641802469381e-02,3.906534972212788448e-01,-5.887564322130446337e-01,3.439127045007322470e-01
2.040800000000000125e+01,5.857135729450414080e-02,3.891025080221176546e-01,-5.853385070582607375e-01,3.504582074955902571e-01
2.042000000000000171e+01,7.057115156707521875e-02,3.872285695643652992e-01,-5.817855068807510355e-01,3.569318370324771617e-01
2.043199999999999861e+01,8.251126254162068074e-02,3.850323050183769857e-01,-5.780986841040943736e-01,3.633313184104585147e-01
2.044399999999999906e+01,9.438533206007743148e-02,3.825143063890243389e-01,-5.742792426204194056e-01,3.696544065052871919e-01
2.045599999999999952e+01,1.061870181176658989e-01,3.796751280400948447e-01,-5.703283347521018731e-01,3.758988775107948710e-01
2.046799999999999997e+01,1.179099818234942837e-01,3.765152808698679077e-01,-5.662470587195266303e-01,3.820625203943207038e-01
2.048000000000000043e+01,1.295478737041589057e-01,3.730352271659358454e-01,-5.620364566248430283e-01,3.881431280805164308e-01
2.049200000000000088e+01,1.410943193482595281e-01,3.692353761698430326e-01,-5.576975129621516425e-01,3.941384883763301428e-01
2.050400000000000134e+01,1.525429043874899082e-01,3.651160803851585812e-01,-5.532311536653109485e-01,4.000463746483798877e-01
2.051599999999999824e+01,1.638871588082053965e-01,3.606776326661643717e-01,-5.486382457056631079e-01,4.058645362624633823e-01
2.052799999999999869e+01,1.751205405855930930e-01,3.559202641284343049e-01,-5.439195972534498491e-01,4.115906887935412151e-01
2.053999999999999915e+01,1.862364186310068170e-01,3.508441429272630696e-01,-5.390759584185307318e-01,4.172225040132453988e-01
2.055199999999999960e+01,1.972280550418241130e-01,3.454493739552061404e-01,-5.341080225881552623e-01,4.227575996608747277e-01
2.056400000000000006e+01,2.080885866421517960e-01,3.397359995158426016e-01,-5.290164283821285895e-01,4.281935290028822672e-01
2.057600000000000051e+01,2.188110058021017212e-01,3.337040010376127186e-01,-5.238017622486464964e-01,4.335277701852033316e-01
2.058800000000000097e+01,2.293881405231562587e-01,3.273533018987497822e-01,-5.184645617273890839e-01,4.387577153823143394e-01
2.060000000000000142e+01,2.398126337775939865e-01,3.206837714424785601e-01,-5.130053194101583669e-01,4.438806597468442638e-01
2.061199999999999832e+01,2.500769220906416401e-01,3.136952302705776630e-01,-5.074244876334846888e-01,4.488937901638129779e-01
2.062399999999999878e+01,2.601732133559808147e-01,3.063874569129098613e-01,-5.017224839421634552e-01,4.537941738142621806e-01
2.063599999999999923e+01,2.700934638773585528e-01,2.987601959814255581e-01,-4.958996973675621756e-01,4.585787465542076058e-01
2.064799999999999969e+01,2.798293546328760595e-01,2.908131679282894289e-01,-4.899564955700024815e-01,4.632443011166036406e-01
2.066000000000000014e+01,2.893722667626795197e-01,2.825460805405121123e-01,-4.838932329001194854e-01,4.677874751463485525e-01
2.067200000000000060e+01,2.987132562869900809e-01,2.739586423168645646e-01,-4.777102594405441272e-01,4.722047390814514967e-01
2.068400000000000105e+01,3.078430280684991138e-01,2.650505778870841378e-01,-4.714079310955727187e-01,4.764923838973225134e-01
2.069600000000000151e+01,3.167519090423139838e-01,2.558216456492364288e-01,-4.649866208037342630e-01,4.806465087361293520e-01
2.070799999999999841e+01,3.254298207478532046e-01,2.462716578172130244e-01,-4.584467309553474923e-01,4.846630084487725254e-01
2.071999999999999886e+01,3.338662512102232305e-01,2.364005030880055314e-01,-4.517887071050001313e-01,4.885375610844140959e-01
2.073199999999999932e+01,3.420502262345780364e-01,2.262081721569416670e-01,-4.450130530768139359e-01,4.922656153705065041e-01
2.074399999999999977e+01,3.499702801961403487e-01,2.156947863280775091e-01,-4.381203475685672699e-01,4.958423782366004895e-01
2.075600000000000023e+01,3.576144264305757825e-01,2.048606294873409894e-01,-4.311112623692649470e-01,4.992628024463506287e-01
2.076800000000000068e+01,3.649701273558180192e-01,1.937061837263775455e-01,-4.239865823128883271e-01,5.025215744159386988e-01
2.078000000000000114e+01,3.720242644868470006e-01,1.822321689263682321e-01,-4.167472270996820938e-01,5.056131023126669843e-01
2.079200000000000159e+01,3.787631085403964093e-01,1.704395866319571295e-01,-4.093942751239665889e-01,5.085315045452826199e-01
2.080399999999999849e+01,3.851722898674724282e-01,1.583297685662803100e-01,-4.019289894553568221e-01,5.112705987783674466e-01
2.081599999999999895e+01,3.912367694987275990e-01,1.459044301580550984e-01,-3.943528461265781715e-01,5.138238916263772049e-01
2.082799999999999940e+01,3.969408111415040907e-01,1.331657294703056382e-01,-3.866675648868422299e-01,5.161845692098047111e-01
2.083999999999999986e+01,4.022679545290396286e-01,1.201163319362345550e-01,-3.788751425837260101e-01,5.183454887856948634e-01
2.085200000000000031e+01,4.072009905919913297e-01,1.067594813215194394e-01,-3.709778893383190446e-01,5.202991716988208948e-01
2.086400000000000077e+01,4.117219390013267533e-01,9.309907734035954840e-02,-3.629784676777856878e-01,5.220377979376104038e-01
2.087600000000000122e+01,4.158120287204524201e-01,7.913976035630723715e-02,-3.548799347853995312e-01,5.235532026210237833e-01
2.088800000000000168e+01,4.194516823034311614e-01,6.488700359433853537e-02,-3.466857880196348995e-01,5.248368747892235842e-01
2.089999999999999858e+01,4.226205047867797604e-01,5.034721327657873391e-02,-3.384000138406180747e-01,5.258799589222928894e-01
2.091199999999999903e+01,4.252972781439648964e-01,3.552783706921804757e-02,-3.300271402621541839e-01,5.266732596671367395e-01
2.092399999999999949e+01,4.274599624059379210e-01,2.043748118759324689e-02,-3.215722929201876301e-01,5.272072503135164512e-01
2.093599999999999994e+01,4.290857046965296795e-01,5.086036449030800766e-03,-3.130412548116788818e-01,5.274720856253524159e-01
2.094800000000000040e+01,4.301508575890511388e-01,-1.051518651585974136e-02,-3.044405297105602370e-01,5.274576197025617752e-01
2.096000000000000085e+01,4.306310083582576276e-01,-2.635331278723558948e-02,-2.957774092069549443e-01,5.271534296213830073e-01
2.097200000000000131e+01,4.305010208789123993e-01,-4.241374944319527968e-02,-2.870600432408610403e-01,5.265488456758977698e-01
2.098400000000000176e+01,4.297350921061353635e-01,-5.868002280750456850e-02,-2.782975139095331119e-01,5.256329891192488279e-01
2.099599999999999866e+01,4.283068252598320469e-01,-7.513360706454400018e-02,-2.694999122159132399e-01,5.243948183776449001e-01
2.100799999999999912e+01,4.261893220213917033e-01,-9.175374490474200173e-02,-2.606784172927923970e-01,5.228231847810379529e-01
2.101999999999999957e+01,4.233552962296429634e-01,-1.085172611717450386e-01,-2.518453774792009936e-01,5.209068989184272302e-01
2.103200000000000003e+01,4.197772117263729452e-01,-1.253983708491739069e-01,-2.430143924418942669e-01,5.186348087782323146e-01
2.104400000000000048e+01,4.154274471397794155e-01,-1.423684831557593400e-01,-2.342003953220733736e-01,5.159958908708084380e-01
2.105600000000000094e+01,4.102784904949985378e-01,-1.593960040168471426e-01,-2.254197336447042455e-01,5.129793555441597430e-01
2.106800000000000139e+01,4.043031665893527804e-01,-1.764461397528893916e-01,-2.166902474544977197e-01,5.095747676883159993e-01
2.107999999999999829e+01,3.974749000481992978e-01,-1.934807054726866982e-01,-2.080313428384564511e-01,5.057721839700319855e-01
2.109199999999999875e+01,3.897680168654531485e-01,-2.104579423802743210e-01,-1.994640586620190503e-01,5.015623076379980283e-01
2.110399999999999920e+01,3.811580870068650984e-01,-2.273323489951731280e-01,-1.910111239880979139e-01,4.969366617784475859e-01
2.111599999999999966e+01,3.716223102885794494e-01,-2.440545321379444799e-01,-1.826970032709789860e-01,4.918877816710961470e-01
2.112800000000000011e+01,3.611399472099363628e-01,-2.605710844301764584e-01,-1.745479260301263658e-01,4.864094265822840324e-01
2.114000000000000057e+01,3.496927956888169486e-01,-2.768244959794877169e-01,-1.665918973241901357e-01,4.804968109252304442e-01
2.115200000000000102e+01,3.372657136908946418e-01,-2.927531088344030863e-01,-1.588586849799222822e-01,4.741468542036354483e-01
2.116400000000000148e+01,3.238471865334855981e-01,-3.082911236595636262e-01,-1.513797792053636626e-01,4.673584485248876708e-01
2.117599999999999838e+01,3.094299361575468255e-01,-3.233686688482976246e-01,-1.441883199575873242e-01,4.601327417163400546e-01
2.118799999999999883e+01,2.940115678827048273e-01,-3.379119428923696433e-01,-1.373189872734355554e-01,4.524734331984600622e-01
2.119999999999999929e+01,2.775952480850387150e-01,-3.518434411929697303e-01,-1.308078497428930009e-01,4.443870787668679490e-01
2.121199999999999974e+01,2.601904038779803141e-01,-3.650822785379208568e-01,-1.246921664482663616e-01,4.358833993217219871e-01
2.122400000000000020e+01,2.418134332638103567e-01,-3.775446180916665617e-01,-1.190101380505926287e-01,4.269755873797802526e-01
2.123600000000000065e+01,2.224884114144060621e-01,-3.891442168500254817e-01,-1.138006033199953637e-01,4.176806039450771668e-01
2.124800000000000111e+01,2.022477758199247300e-01,-3.997930960017607727e-01,-1.091026783186673232e-01,4.080194570463021031e-01
2.126000000000000156e+01,1.811329701335135378e-01,-4.094023424253514509e-01,-1.049553366875751181e-01,3.980174520344869626e-01
2.127199999999999847e+01,1.591950237914922517e-01,-4.178830445609503785e-01,-1.013969310826825232e-01,3.877044026514758768e-01
2.128399999999999892e+01,1.364950420905273742e-01,-4.251473620935991571e-01,-9.846465775926697972e-02,3.771147910184564633e-01
2.129599999999999937e+01,1.131045795738812865e-01,-4.311097242656412032e-01,-9.619396859767360974e-02,3.662878641573052430e-01
2.130799999999999983e+01,8.910586855651214666e-02,-4.356881462613538258e-01,-9.461793745601876360e-02,3.552676545529889762e-01
2.132000000000000028e+01,6.459187465197333000e-02,-4.388056470985442492e-01,-9.376659054969689600e-02,3.441029127006191568e-01
2.133200000000000074e+01,3.966615248852872755e-02,-4.403917460210076129e-01,-9.366621348263240443e-02,3.328469406516417761e-01
2.134400000000000119e+01,1.444247762183831045e-02,-4.403840077918845242e-01,-9.433865044548177259e-02,3.215573173556103281e-01
2.135600000000000165e+01,-1.095576488991541024e-02,-4.387296008983121443e-01,-9.580061377414920976e-02,3.102955091280275024e-01
2.136799999999999855e+01,-3.639644862943161585e-02,-4.353868269141356051e-01,-9.806302432659495805e-02,2.991263618565738192e-01
2.137999999999999901e+01,-6.173983627315519224e-02,-4.303265745948686161e-01,-1.011304047740888695e-01,2.881174755269784726e-01
2.139199999999999946e+01,-8.683996870895564768e-02,-4.235336491735127717e-01,-1.050003487064383456e-01,2.773384661820178509e-01
2.140399999999999991e+01,-1.115462988300133657e-01,-4.150079262335182873e-01,-1.096630882355672520e-01,2.668601253331290279e-01
2.141600000000000037e+01,-1.357055450422091636e-01,-4.047652808257393708e-01,-1.151011814105711989e-01,2.567534918740955185e-01
2.142800000000000082e+01,-1.591637285225410980e-01,-3.928382464149609565e-01,-1.212893381594247894e-01,2.470888564010524646e-01
2.144000000000000128e+01,-1.817683479326484275e-01,-3.792763648658561970e-01,-1.281943996620832360e-01,2.379347221949447422e-01
2.145199999999999818e+01,-2.033706363547392315e-01,-3.641461978854818038e-01,-1.357754811464348954e-01,2.293567506407734047e-01
2.146399999999999864e+01,-2.238278383822673578e-01,-3.475309817914668531e-01,-1.439842822905756103e-01,2.214167212392747497e-01
2.147599999999999909e+01,-2.430054411745223852e-01,-3.295299206256316338e-01,-1.527655630097594641e-01,2.141715373672034295e-01
2.148799999999999955e+01,-2.607792923231256887e-01,-3.102571267565646385e-01,-1.620577757730603530e-01,2.076723084054178659e-01
2.150000000000000000e+01,-2.770375398115320076e-01,-2.898402323625645649e-01,-1.717938391436103496e-01,2.019635367327918818e-01
2.151200000000000045e+01,-2.916823351581955270e-01,-2.684187086540198997e-01,-1.819020313850170933e-01,1.970824344516321769e-01
2.152400000000000091e+01,-3.046312497380814777e-01,-2.461419415062427729e-01,-1.923069781102213216e-01,1.930583897598324716e-01
2.153600000000000136e+01,-3.158183657503989550e-01,-2.231671215632658467e-01,-2.029307043851853731e-01,1.899125969141544912e-01
2.154800000000000182e+01,-3.251950166175252011e-01,-1.996570132550733734e-01,-2.136937196571047359e-01,1.876578571145962326e-01
2.155999999999999872e+01,-3.327301659028441549e-01,-1.757776701942778130e-01,-2.245161034568998459e-01,1.862985508031626547e-01
2.157199999999999918e+01,-3.384104282129744012e-01,-1.516961639937585427e-01,-2.353185610055360533e-01,1.858307752383607236e-01
2.158399999999999963e+01,-3.422397491218323040e-01,-1.275783898448766274e-01,-2.460234204927142510e-01,1.862426351736447550e-01
2.159600000000000009e+01,-3.442387731466703960e-01,-1.035870056183997856e-01,-2.565555476551377168e-01,1.875146693626554006e-01
2.160800000000000054e+01,-3.444439386122284952e-01,-7.987955238083246923e-02,-2.668431580484770804e-01,1.896203916754079510e-01
2.162000000000000099e+01,-3.429063454574629022e-01,-5.660679375698462329e-02,-2.768185127324513939e-01,1.925269229739082211e-01
2.163200000000000145e+01,-3.396904464880112218e-01,-3.391130026053943564e-02,-2.864184886160798249e-01,1.961956885951143259e-01
2.164399999999999835e+01,-3.348726142859283494e-01,-1.192629328264726771e-02,-2.955850201091021479e-01,2.005831562602941875e-01
2.165599999999999881e+01,-3.285396351678313565e-01,9.225247479970215270e-03,-3.042654137129256475e-01,2.056415903310828686e-01
2.166799999999999926e+01,-3.207871785858698588e-01,2.943121923448608832e-02,-3.124125415423719132e-01,2.113198003657224822e-01
2.167999999999999972e+01,-3.117182856368403976e-01,4.859078844210906051e-02,-3.199849233522007452e-01,2.175638646640865315e-01
2.169200000000000017e+01,-3.014419143704753501e-01,6.661456157239813158e-02,-3.269467093759821918e-01,2.243178126873397737e-01
2.170400000000000063e+01,-2.900715728531619853e-01,8.342456053088542767e-02,-3.332675781612203791e-01,2.315242536688467134e-01
2.171600000000000108e+01,-2.777240638952345186e-01,9.895403231345559214e-02,-3.389225646492353694e-01,2.391249421941039344e-01
2.172800000000000153e+01,-2.645183583715056130e-01,1.131471241354991691e-01,-3.438918340875199986e-01,2.470612748519973034e-01
2.173999999999999844e+01,-2.505746074597327011e-01,1.259584555886103796e-01,-3.481604170883472738e-01,2.552747151215370991e-01
2.175199999999999889e+01,-2.360132981096103866e-01,1.373526185324330240e-01,-3.517179203853113001e-01,2.637071463728162812e-01
2.176399999999999935e+01,-2.209545507728840064e-01,1.473036336880730879e-01,-3.545582267152333489e-01,2.723011551823501519e-01
2.177599999999999980e+01,-2.055175539365514670e-01,1.557943905096506598e-01,-3.566791958844244825e-01,2.810002490789064722e-01
2.178800000000000026e+01,-1.898201263083444668e-01,1.628160940958248704e-01,-3.580823775689372934e-01,2.897490143604936064e-01
2.180000000000000071e+01,-1.739783945607877025e-01,1.683677398544996540e-01,-3.587727448330496616e-01,2.984932207907719515e-01
2.181200000000000117e+01,-1.581065722685643660e-01,1.724556335021585896e-01,-3.587584557931072227e-01,3.071798808405441505e-01
2.182400000000000162e+01,-1.423168239747663877e-01,1.750929708739028257e-01,-3.580506493489026276e-01,3.157572717408884122e-01
2.183599999999999852e+01,-1.267191970880932883e-01,1.762994890099653378e-01,-3.566632794764425518e-01,3.241749290137740380e-01
2.184799999999999898e+01,-1.114216034402480821e-01,1.761011971003303700e-01,-3.546129912313309429e-01,3.323836203954168012e-01
2.185999999999999943e+01,-9.652983172632087494e-02,1.745301931089796588e-01,-3.519190403432029268e-01,3.403353092121936818e-01
2.187199999999999989e+01,-8.214757163280905772e-02,1.716245692332221684e-01,-3.486032570685920762e-01,3.479831163445558651e-01
