Frequency, Re(SMin1Min1), Im(SMin1Min1), Re(SMax1Min1), Im(SMax1Min1)
2.000000000000000000e+01,-3.953440472324988852e-01,1.889592500233795436e-01,-5.927286642619251644e-01,6.490881645789216281e-02
2.001200000000000045e+01,-3.868094055724944913e-01,1.999368540013967410e-01,-5.954538032792796587e-01,7.195141318334680181e-02
2.002400000000000091e+01,-3.780060155081825801e-01,2.106434025655427866e-01,-5.980158119170398967e-01,7.906138047815713943e-02
2.003600000000000136e+01,-3.689427731934538657e-01,2.210720927500078037e-01,-6.004133445334431940e-01,8.623405970949486743e-02
2.004799999999999827e+01,-3.596286971735113136e-01,2.312164832870861053e-01,-6.026452186546852330e-01,9.346480183100824846e-02
2.005999999999999872e+01,-3.500729096863999801e-01,2.410704918794476792e-01,-6.047104109551530993e-01,1.007489746698974065e-01
2.007199999999999918e+01,-3.402846185443833549e-01,2.506283913889975623e-01,-6.066080528623211121e-01,1.080819698267818513e-01
2.008399999999999963e+01,-3.302730996546816011e-01,2.598848050015787892e-01,-6.083374258179249372e-01,1.154592091707108276e-01
2.009600000000000009e+01,-3.200476802335197046e-01,2.688347004291371523e-01,-6.098979562274177146e-01,1.228761509142129449e-01
2.010800000000000054e+01,-3.096177227617195604e-01,2.774733832129364086e-01,-6.112892101298766923e-01,1.303282952558811048e-01
2.012000000000000099e+01,-2.989926097244836045e-01,2.857964891927760043e-01,-6.125108876204841124e-01,1.378111895804537967e-01
2.013200000000000145e+01,-2.881817291725357055e-01,2.937999762080350519e-01,-6.135628170574491946e-01,1.453204332087434103e-01
2.014399999999999835e+01,-2.771944611364730027e-01,3.014801150967942878e-01,-6.144449490848203910e-01,1.528516816920112709e-01
2.015599999999999881e+01,-2.660401649210064612e-01,3.088334800592479890e-01,-6.151573505020111465e-01,1.604006506475590677e-01
2.016799999999999926e+01,-2.547281673009505476e-01,3.158569384511624167e-01,-6.157001980101526328e-01,1.679631191342556840e-01
2.017999999999999972e+01,-2.432677516360489955e-01,3.225476400724083814e-01,-6.160737718644745398e-01,1.755349325686480499e-01
2.019200000000000017e+01,-2.316681479174710900e-01,3.289030060143732226e-01,-6.162784494609518937e-01,1.831120051839237872e-01
2.020400000000000063e+01,-2.199385237546832850e-01,3.349207171287303386e-01,-6.163146988843666296e-01,1.906903220355931627e-01
2.021600000000000108e+01,-2.080879763076770306e-01,3.405987021783111746e-01,-6.161830724437700191e-01,1.982659405590871393e-01
2.022800000000000153e+01,-1.961255251661033205e-01,3.459351257289918213e-01,-6.158842002201339039e-01,2.058349916857186435e-01
2.023999999999999844e+01,-1.840601061738026956e-01,3.509283758394328157e-01,-6.154187836497270192e-01,2.133936805244557311e-01
2.025199999999999889e+01,-1.719005661944459362e-01,3.555770516033588957e-01,-6.147875891654641656e-01,2.209382866178815075e-01
2.026399999999999935e+01,-1.596556588116886388e-01,3.598799505967250068e-01,-6.139914419172285420e-01,2.284651637813672198e-01
2.027599999999999980e+01,-1.473340409550662478e-01,3.638360562798780840e-01,-6.130312195908723671e-01,2.359707395351289816e-01
2.028800000000000026e+01,-1.349442704412713301e-01,3.674445254023523955e-01,-6.119078463443793359e-01,2.434515141391646875e-01
2.030000000000000071e+01,-1.224948044189999030e-01,3.707046754556628243e-01,-6.106222868784607627e-01,2.509040592413777637e-01
2.031200000000000117e+01,-1.099939987045160938e-01,3.736159722171006892e-01,-6.091755406577163967e-01,2.583250161492876007e-01
2.032400000000000162e+01,-9.745010799435294135e-02,3.761780174253028242e-01,-6.075686362973937715e-01,2.657110937357273772e-01
2.033599999999999852e+01,-8.487128694110968041e-02,3.783905366262269587e-01,-6.058026261297893011e-01,2.730590659887703331e-01
2.034799999999999898e+01,-7.226559207813727792e-02,3.802533672261321773e-01,-6.038785809633968604e-01,2.803657692158954551e-01
2.035999999999999943e+01,-5.964098457909813161e-02,3.817664467862974531e-01,-6.017975850471053434e-01,2.876280989119869291e-01
2.037199999999999989e+01,-4.700533383862716408e-02,3.829298015925329257e-01,-5.995607312510188303e-01,2.948430063003626422e-01
2.038400000000000034e+01,-3.436642186107260327e-02,3.837435355310293006e-01,-5.971691164748826885e-01,3.020074945554078738e-01
2.039600000000000080e+01,-2.173194844505884835e-02,3.842078193008440778e-01,-5.946238372946233142e-01,3.091186147147781949e-01
2.040800000000000125e+01,-9.109537152688505085e-03,3.843228799922870920e-01,-5.919259858571864763e-01,3.161734612884232187e-01
2.042000000000000171e+01,3.493257946564082804e-03,3.840889910597379275e-01,-5.890766460336406274e-01,3.231691675709015832e-01
2.043199999999999861e+01,1.606894476580139966e-02,3.835064627169500473e-01,-5.860768898404999927e-01,3.301029006626305384e-01
2.044399999999999906e+01,2.861008493148966061e-02,3.825756327827637970e-01,-5.829277741393090739e-01,3.369718562048601429e-01
2.045599999999999952e+01,4.110928476030936002e-02,3.812968580053365808e-01,-5.796303376248465034e-01,3.437732528322126613e-01
2.046799999999999997e+01,5.355918548561626469e-02,3.796705058935413435e-01,-5.761855981127449455e-01,3.505043263457816027e-01
2.048000000000000043e+01,6.595245273503731742e-02,3.776969470851260224e-01,-5.725945501379833269e-01,3.571623236087735909e-01
2.049200000000000088e+01,7.828176525883044634e-02,3.753765482825500710e-01,-5.688581628765623233e-01,3.637444961657921305e-01
2.050400000000000134e+01,9.053980290661819974e-02,3.727096657892033926e-01,-5.649773784037107616e-01,3.702480935859302491e-01
2.051599999999999824e+01,1.027192338480635708e-01,3.696966396809329147e-01,-5.609531103032571187e-01,3.766703565289483135e-01
2.052799999999999869e+01,1.148127010310874968e-01,3.663377886505415626e-01,-5.567862426442879986e-01,3.830085095329797129e-01
2.053999999999999915e+01,1.268128078691687644e-01,3.626334055661810662e-01,-5.524776293429912721e-01,3.892597535213891957e-01
2.055199999999999960e+01,1.387121031475135047e-01,3.585837537883653781e-01,-5.480280939295325560e-01,3.954212580257570053e-01
2.056400000000000006e+01,1.505030651359846039e-01,3.541890642947717049e-01,-5.434384297421500642e-01,4.014901531212948793e-01
2.057600000000000051e+01,1.621780848951476228e-01,3.494495336670371266e-01,-5.387094005731778434e-01,4.074635210705507826e-01
2.058800000000000097e+01,1.737294487603836812e-01,3.443653229995236043e-01,-5.338417417946047516e-01,4.133383876709041949e-01
2.060000000000000142e+01,1.851493199879026275e-01,3.389365577964996157e-01,-5.288361619939547786e-01,4.191117133012096652e-01
2.061199999999999832e+01,1.964297195457189449e-01,3.331633289314612778e-01,-5.236933451548548835e-01,4.247803836629797103e-01
2.062399999999999878e+01,2.075625060323307292e-01,3.270456947504156719e-01,-5.184139534205204347e-01,4.303412002118345847e-01
2.063599999999999923e+01,2.185393547059218677e-01,3.205836844099959615e-01,-5.129986304827499621e-01,4.357908702755076136e-01
2.064799999999999969e+01,2.293517356078099423e-01,3.137773025511795821e-01,-5.074480056436643238e-01,4.411259968557105227e-01
2.066000000000000014e+01,2.399908907652579526e-01,3.066265354204348315e-01,-5.017626986026252345e-01,4.463430681124698207e-01
2.067200000000000060e+01,2.504478104612091749e-01,2.991313585621468984e-01,-4.959433250263247106e-01,4.514384465314218442e-01
2.068400000000000105e+01,2.607132085619076611e-01,2.912917462194108964e-01,-4.899905029661285605e-01,4.564083577769498801e-01
2.069600000000000151e+01,2.707774968980103392e-01,2.831076825946795550e-01,-4.839048601932857130e-01,4.612488792370772472e-01
2.070799999999999841e+01,2.806307587008387006e-01,2.745791751374532241e-01,-4.776870425297108924e-01,4.659559282698471083e-01
2.071999999999999886e+01,2.902627211031874599e-01,2.657062700431701008e-01,-4.713377232595790667e-01,4.705252501655621811e-01
2.073199999999999932e+01,2.996627267237305658e-01,2.564890701658443239e-01,-4.648576137151131382e-01,4.749524058449181574e-01
2.074399999999999977e+01,3.088197043661071173e-01,2.469277555666451462e-01,-4.582474751384741363e-01,4.792327593198875135e-01
2.075600000000000023e+01,3.177221388782714984e-01,2.370226069417931403e-01,-4.515081319308105190e-01,4.833614649523154116e-01
2.076800000000000068e+01,3.263580402353511989e-01,2.267740321955736549e-01,-4.446404864090315878e-01,4.873334545548412833e-01
2.078000000000000114e+01,3.347149119303972631e-01,2.161825964480478535e-01,-4.376455352008136734e-01,4.911434243901178776e-01
2.079200000000000159e+01,3.427797187825502578e-01,2.052490557920183256e-01,-4.305243874186232556e-01,4.947858221376346677e-01
2.080399999999999849e+01,3.505388543019520298e-01,1.939743951398462118e-01,-4.232782847640094159e-01,4.982548339130062898e-01
2.081599999999999895e+01,3.579781077857847604e-01,1.823598705275168985e-01,-4.159086237239540407e-01,5.015443714427028077e-01
2.082799999999999940e+01,3.650826313608637741e-01,1.704070562707878100e-01,-4.084169800315315957e-01,5.046480595180994344e-01
2.083999999999999986e+01,3.718369072361458749e-01,1.581178973955332245e-01,-4.008051355730963827e-01,5.075592238769349729e-01
2.085200000000000031e+01,3.782247154840062131e-01,1.454947677914525950e-01,-3.930751079336445852e-01,5.102708796879350528e-01
2.086400000000000077e+01,3.842291027333825104e-01,1.325405345639532328e-01,-3.852291827802176161e-01,5.127757208461216631e-01
2.087600000000000122e+01,3.898323522317201362e-01,1.192586290826082307e-01,-3.772699492899091456e-01,5.150661103224354331e-01
2.088800000000000168e+01,3.950159558172282037e-01,1.056531252448779518e-01,-3.692003388335264868e-01,5.171340718522758895e-01
2.089999999999999858e+01,3.997605884393700681e-01,9.172882548934295499e-02,-3.610236671275202092e-01,5.189712832938179199e-01
2.091199999999999903e+01,4.040460859748952194e-01,7.749135510174270935e-02,-3.527436800645240567e-01,5.205690720389333226e-01
2.092399999999999949e+01,4.078514272101195770e-01,6.294726535764406938e-02,-3.443646034257178967e-01,5.219184129175796771e-01
2.093599999999999994e+01,4.111547209987321816e-01,4.810414603466321715e-02,-3.358911966648295278e-01,5.230099291010308349e-01
2.094800000000000040e+01,4.139331997588462930e-01,3.297074780225322382e-02,-3.273288109326378814e-01,5.238338965804371083e-01
2.096000000000000085e+01,4.161632206441728266e-01,1.755711495398984412e-02,-3.186834514803630891e-01,5.243802528751084768e-01
2.097200000000000131e+01,4.178202759122574550e-01,1.874728882100616710e-03,-3.099618445384081378e-01,5.246386107094409557e-01
2.098400000000000176e+01,4.188790142176060383e-01,-1.406333739843497466e-02,-3.011715087112040723e-01,5.245982774882259614e-01
2.099599999999999866e+01,4.193132747783688830e-01,-3.024225349419453271e-02,-2.923208308567526448e-01,5.242482814964386506e-01
2.100799999999999912e+01,4.190961366004137267e-01,-4.664525462873995304e-02,-2.834191463278858958e-01,5.235774058503196438e-01
2.101999999999999957e+01,4.181999851892440057e-01,-6.325345358308651078e-02,-2.744768233381433831e-01,5.225742313299286401e-01
2.103200000000000003e+01,4.165965994341026546e-01,-8.004564204122191495e-02,-2.655053510747535372e-01,5.212271893267997891e-01
2.104400000000000048e+01,4.142572616036702682e-01,-9.699808212962625353e-02,-2.565174310111539846e-01,5.195246262405810445e-01
2.105600000000000094e+01,4.111528936408395118e-01,-1.140842893412110232e-01,-2.475270706676993004e-01,5.174548807511771820e-01
2.106800000000000139e+01,4.072542231742372620e-01,-1.312748085168940759e-01,-2.385496788281821490e-01,5.150063754721663223e-01
2.107999999999999829e+01,4.025319828625235075e-01,-1.485369851313032286e-01,-2.296021609380935191e-01,5.121677245501917719e-01
2.109199999999999875e+01,3.969571468364737066e-01,-1.658347348009986677e-01,-2.207030130853523120e-01,5.089278588046628471e-01
2.110399999999999920e+01,3.905012080818684450e-01,-1.831283147104781905e-01,-2.118724125938703517e-01,5.052761699920638172e-01
2.111599999999999966e+01,3.831365005871772422e-01,-2.003741015374263246e-01,-2.031323028442902356e-01,5.012026757167888924e-01
2.112800000000000011e+01,3.748365699333321976e-01,-2.175243814535637310e-01,-1.945064694766980851e-01,4.966982063813373260e-01
2.114000000000000057e+01,3.655765956930107641e-01,-2.345271588762482262e-01,-1.860206046314575590e-01,4.917546153564695266e-01
2.115200000000000102e+01,3.553338684940310355e-01,-2.513259918355242317e-01,-1.777023553551684842e-01,4.863650132385454739e-01
2.116400000000000148e+01,3.440883238422125512e-01,-2.678598630796175661e-01,-1.695813517520882996e-01,4.805240266275890293e-01
2.117599999999999838e+01,3.318231337476766352e-01,-2.840630973350543043e-01,-1.616892099159738250e-01,4.742280812861190409e-01
2.118799999999999883e+01,3.185253558092238646e-01,-2.998653364176737113e-01,-1.540595041585539338e-01,4.674757088067622579e-01
2.119999999999999929e+01,3.041866376415360840e-01,-3.151915850933315055e-01,-1.467277025918154731e-01,4.602678750098981308e-01
2.121199999999999974e+01,2.888039723437079709e-01,-3.299623416297882139e-01,-1.397310597629125017e-01,4.526083271992492052e-01
2.122400000000000020e+01,2.723804980827157496e-01,-3.440938277614885576e-01,-1.331084598326615076e-01,4.445039561190884947e-01
2.123600000000000065e+01,2.549263317979166277e-01,-3.574983331858932467e-01,-1.269002037884902623e-01,4.359651669871257296e-01
2.124800000000000111e+01,2.364594235463816363e-01,-3.700846895844144835e-01,-1.211477344546863649e-01,4.270062523419398404e-01
2.126000000000000156e+01,2.170064141624207799e-01,-3.817588883608802330e-01,-1.158932936750018960e-01,4.176457576800170490e-01
2.127199999999999847e+01,1.966034748008860245e-01,-3.924248546577207564e-01,-1.111795070634579857e-01,4.079068290232950034e-01
2.128399999999999892e+01,1.752971027267408166e-01,-4.019853875914818353e-01,-1.070488932114482261e-01,3.978175297358019225e-01
2.129599999999999937e+01,1.531448436145363690e-01,-4.103432729109579569e-01,-1.035432962531725870e-01,3.874111122056393963e-01
2.130799999999999983e+01,1.302159069007063630e-01,-4.174025693274645565e-01,-1.007032432555467760e-01,3.767262285596431615e-01
2.132000000000000028e+01,1.065916377159156908e-01,-4.230700635605115223e-01,-9.856723101033645906e-02,3.658070635392465797e-01
2.133200000000000074e+01,8.236580698473527917e-02,-4.272568817295058774e-01,-9.717095042050148679e-02,3.547033722096483710e-01
2.134400000000000119e+01,5.764468081363376822e-02,-4.298802362537426092e-01,-9.654646069372881112e-02,3.434704054789795014e-01
2.135600000000000165e+01,3.254683169019262357e-02,-4.308652781739165105e-01,-9.672132982928371980e-02,3.321687076390123505e-01
2.136799999999999855e+01,7.202657640456098208e-03,-4.301470151893031502e-01,-9.771776219351148429e-02,3.208637724455897788e-01
2.137999999999999901e+01,-1.824641839564663387e-02,-4.276722462617463805e-01,-9.955173804979032537e-02,3.096255477272606416e-01
2.139199999999999946e+01,-4.364908797840880150e-02,-4.234014550365849394e-01,-1.022321934176819574e-01,2.985277831643528001e-01
2.140399999999999991e+01,-6.884564308390959952e-02,-4.173105973226535759e-01,-1.057602712321074057e-01,2.876472216440235097e-01
2.141600000000000037e+01,-9.366980265475800815e-02,-4.093927132408614611e-01,-1.101286761047791801e-01,2.770626412876403544e-01
2.142800000000000082e+01,-1.179508585916776708e-01,-3.996592931348962319e-01,-1.153211647403320217e-01,2.668537625666108637e-01
2.144000000000000128e+01,-1.415161036941303963e-01,-3.881413285542535951e-01,-1.213122019872404506e-01,2.571000424636563642e-01
2.145199999999999818e+01,-1.641934877914221214e-01,-3.748899859712192528e-01,-1.280668084824324315e-01,2.478793849005676286e-01
2.146399999999999864e+01,-1.858144332237374463e-01,-3.599768514874800984e-01,-1.355406199012358370e-01,2.392668030887329655e-01
2.147599999999999909e+01,-2.062167281486423087e-01,-3.434937093774882433e-01,-1.436801701443866097e-01,2.313330745079724138e-01
2.148799999999999955e+01,-2.252474070177812593e-01,-3.255518352800151338e-01,-1.524234017502761052e-01,2.241434323771726300e-01
2.150000000000000000e+01,-2.427655229571780982e-01,-3.062808052019179716e-01,-1.617003969403524866e-01,2.177563383540533359e-01
2.151200000000000045e+01,-2.586447173521385645e-01,-2.858268429570411939e-01,-1.714343126361669301e-01,2.122223795625310938e-01
2.152400000000000091e+01,-2.727754979379051758e-01,-2.643507497590853461e-01,-1.815424932376797085e-01,2.075833288698756829e-01
2.153600000000000136e+01,-2.850671479256647323e-01,-2.420254789024696152e-01,-1.919377266268226523e-01,2.038714008168082403e-01
2.154800000000000182e+01,-2.954492044858294530e-01,-2.190334343894522751e-01,-2.025296023799563749e-01,2.011087271467592308e-01
2.155999999999999872e+01,-3.038724641970718676e-01,-1.955635838405836990e-01,-2.132259270125128336e-01,1.993070660650845538e-01
2.157199999999999918e+01,-3.103094944803493349e-01,-1.718084822813094048e-01,-2.239341495160127316e-01,1.984677488815433100e-01
2.158399999999999963e+01,-3.147546520426133254e-01,-1.479613041058348566e-01,-2.345627515348987502e-01,1.985818572916041858e-01
2.159600000000000009e+01,-3.172236304239840488e-01,-1.242129758287771613e-01,-2.450225600980735219e-01,1.996306149456589241e-01
2.160800000000000054e+01,-3.177525774930644586e-01,-1.007494927344436547e-01,-2.552279465000726333e-01,2.015859687520612509e-01
2.162000000000000099e+01,-3.163968390623007054e-01,-7.774948916418275568e-02,-2.650978822038171367e-01,2.044113290186671539e-01
2.163200000000000145e+01,-3.132293959537941763e-01,-5.538211612353772378e-02,-2.745568309071336199e-01,2.080624333314160523e-01
2.164399999999999835e+01,-3.083390684883862698e-01,-3.380526242386511920e-02,-2.835354645533972318e-01,2.124882970765686885e-01
2.165599999999999881e+01,-3.018285645364353620e-01,-1.316413795102175724e-02,-2.919711994861804438e-01,2.176322136346703628e-01
2.166799999999999926e+01,-2.938124453314802098e-01,6.409779009002518346e-03,-2.998085566496816456e-01,2.234327692599254178e-01
2.167999999999999972e+01,-2.844150778368021437e-01,2.479944326720443654e-02,-3.069993563426320349e-01,2.298248411542347103e-01
2.169200000000000017e+01,-2.737686343595009952e-01,4.190261825754822839e-02,-3.135027632997641200e-01,2.367405518382589558e-01
2.170400000000000063e+01,-2.620111901824206946e-01,5.763196028820826572e-02,-3.192852016926667202e-01,2.441101581878962479e-01
2.171600000000000108e+01,-2.492849590685834726e-01,7.191485277072454108e-02,-3.243201620205496960e-01,2.518628590442308357e-01
2.172800000000000153e+01,-2.357346953388271271e-01,8.469303542053079059e-02,-3.285879229066530072e-01,2.599275107731640611e-01
2.173999999999999844e+01,-2.215062804557876852e-01,9.592207462862903378e-02,-3.320752107010241372e-01,2.682332452736211348e-01
2.175199999999999889e+01,-2.067455021396531478e-01,1.055707202627303304e-01,-3.347748187278498100e-01,2.767099895145345156e-01
2.176399999999999935e+01,-1.915970253120761468e-01,1.136201915051323064e-01,-3.366852062320852546e-01,2.852888896009599939e-01
2.177599999999999980e+01,-1.762035467890802343e-01,1.200634304181030232e-01,-3.378100947953154298e-01,2.939026455768867230e-01
2.178800000000000026e+01,-1.607051196752140032e-01,1.249043571587191565e-01,-3.381580774016680335e-01,3.024857656697481079e-01
2.180000000000000071e+01,-1.452386288066596087e-01,1.281571555036095378e-01,-3.377422526063400543e-01,3.109747505142608226e-01
2.181200000000000117e+01,-1.299373952414257516e-01,1.298456118802438497e-01,-3.365798935201859132e-01,3.193082191324538854e-01
2.182400000000000162e+01,-1.149308855507094468e-01,1.300025256533694773e-01,-3.346921586651728231e-01,3.274269891782689568e-01
2.183599999999999852e+01,-1.003445003616626752e-01,1.286692031300449568e-01,-3.321038492340585568e-01,3.352741242673757394e-01
2.184799999999999898e+01,-8.629941607627458766e-02,1.258950427088711688e-01,-3.288432149305446917e-01,3.427949611885718340e-01
2.185999999999999943e+01,-7.291245380096823825e-02,1.217372138404631959e-01,-3.249418083766872911e-01,3.499371295025991424e-01
2.187199999999999989e+01,-6.029595015263026353e-02,1.162604279795904499e-01,-3.204343860386979492e-01,3.566505755314394177e-01
