Frequency, Re(SMin1Min1), Im(SMin1Min1), Re(SMax1Min1), Im(SMax1Min1)
2.000000000000000000e+01,-4.918487986597237516e-01,5.117584874147314972e-02,-5.413637074555763817e-01,-5.487440811951326165e-03
2.001200000000000045e+01,-4.868549175749807834e-01,6.453663692049835254e-02,-5.457714376758394659e-01,3.274081453553370942e-04
2.002400000000000091e+01,-4.815421077473950318e-01,7.771354903450627960e-02,-5.500432156225733005e-01,6.244627918744441626e-03
2.003600000000000136e+01,-4.759168440714685033e-01,9.069874799428417900e-02,-5.541770185836679685e-01,1.226025656427793230e-02
2.004799999999999827e+01,-4.699857680890608402e-01,1.034846743085716114e-01,-5.581709639540455292e-01,1.837032023517055565e-02
2.005999999999999872e+01,-4.637556735544036690e-01,1.160640471421626879e-01,-5.620233067933119164e-01,2.457083921180128194e-02
2.007199999999999918e+01,-4.572334922393588852e-01,1.284298645724165078e-01,-5.657324371036949184e-01,3.085783368447820446e-02
2.008399999999999963e+01,-4.504262800209629658e-01,1.405754030737301208e-01,-5.692968768476619479e-01,3.722732927782948509e-02
2.009600000000000009e+01,-4.433412032904284206e-01,1.524942162612062113e-01,-5.727152767247185583e-01,4.367536230713527784e-02
2.010800000000000054e+01,-4.359855257197882139e-01,1.641801329263676834e-01,-5.759864127269637146e-01,5.019798475839352958e-02
2.012000000000000099e+01,-4.283665954194108005e-01,1.756272543990074764e-01,-5.791091824928541465e-01,5.679126898530750811e-02
2.013200000000000145e+01,-4.204918325166753790e-01,1.868299512702797094e-01,-5.820826014784891145e-01,6.345131211772370161e-02
2.014399999999999835e+01,-4.123687171831778020e-01,1.977828595128842959e-01,-5.849057989654258272e-01,7.017424017733646380e-02
2.015599999999999881e+01,-4.040047781349759282e-01,2.084808760347439394e-01,-5.875780139237064548e-01,7.695621189769390191e-02
2.016799999999999926e+01,-3.954075816276650390e-01,2.189191537027997958e-01,-5.900985907482940718e-01,8.379342224662597594e-02
2.017999999999999972e+01,-3.865847209652889527e-01,2.290930958737427692e-01,-5.924669748867330554e-01,9.068210565040435434e-02
2.019200000000000017e+01,-3.775438065396116705e-01,2.389983504682745008e-01,-5.946827083751028420e-01,9.761853891972960273e-02
2.020400000000000063e+01,-3.682924564137579626e-01,2.486308036252715126e-01,-5.967454252989400354e-01,1.045990438787493676e-01
2.021600000000000108e+01,-3.588382874619165941e-01,2.579865729717373823e-01,-5.986548471949907357e-01,1.116199896989615997e-01
2.022800000000000153e+01,-3.491889070746120316e-01,2.670620005438308353e-01,-6.004107784090538802e-01,1.186777949406757765e-01
2.023999999999999844e+01,-3.393519054369953381e-01,2.758536453935218624e-01,-6.020131014244493040e-01,1.257689293053147195e-01
2.025199999999999889e+01,-3.293348483857070352e-01,2.843582759145845684e-01,-6.034617721749145902e-01,1.328899151024219571e-01
2.026399999999999935e+01,-3.191452708481816170e-01,2.925728619206391379e-01,-6.047568153549975900e-01,1.400373284356692949e-01
2.027599999999999980e+01,-3.087906708665888456e-01,3.004945665070085092e-01,-6.058983197402761922e-01,1.472078001126268798e-01
2.028800000000000026e+01,-2.982785042073004544e-01,3.081207377269651326e-01,-6.068864335289929635e-01,1.543980162832983560e-01
2.030000000000000071e+01,-2.876161795554668110e-01,3.154489001118441771e-01,-6.077213597159609737e-01,1.616047188127020251e-01
2.031200000000000117e+01,-2.768110542932173956e-01,3.224767460632919081e-01,-6.084033515088881350e-01,1.688247053929219366e-01
2.032400000000000162e+01,-2.658704308590960630e-01,3.292021271447154174e-01,-6.089327077965670520e-01,1.760548294001433312e-01
2.033599999999999852e+01,-2.548015536855747221e-01,3.356230452977682632e-01,-6.093097686777072530e-01,1.832919995021926318e-01
2.034799999999999898e+01,-2.436116067108826666e-01,3.417376440085124756e-01,-6.095349110585476238e-01,1.905331790220726462e-01
2.035999999999999943e+01,-2.323077114610200278e-01,3.475441994466588747e-01,-6.096085443267876824e-01,1.977753850628115040e-01
2.037199999999999989e+01,-2.208969256974261941e-01,3.530411116001861416e-01,-6.095311061087990145e-01,2.050156873988444872e-01
2.038400000000000034e+01,-2.093862426257571685e-01,3.582268954264523075e-01,-6.093030581165695958e-01,2.122512071388345523e-01
2.039600000000000080e+01,-1.977825906611783147e-01,3.631001720398781552e-01,-6.089248820903383486e-01,2.194791151645819061e-01
2.040800000000000125e+01,-1.860928337457521120e-01,3.676596599552661160e-01,-6.083970758424809278e-01,2.266966303503226421e-01
2.042000000000000171e+01,-1.743237722138015200e-01,3.719041664048913787e-01,-6.077201494078071642e-01,2.339010175663081004e-01
2.043199999999999861e+01,-1.624821442015596806e-01,3.758325787466596513e-01,-6.068946213051344962e-01,2.410895854701257390e-01
2.044399999999999906e+01,-1.505746275979462645e-01,3.794438559798893884e-01,-6.059210149147556956e-01,2.482596840887429379e-01
2.045599999999999952e+01,-1.386078425340753484e-01,3.827370203846131025e-01,-6.047998549762113596e-01,2.554087021936827240e-01
2.046799999999999997e+01,-1.265883544097741731e-01,3.857111492998218649e-01,-6.035316642106878238e-01,2.625340644712577109e-01
2.048000000000000043e+01,-1.145226774564255950e-01,3.883653670556443949e-01,-6.021169600722886539e-01,2.696332284891037601e-01
2.049200000000000088e+01,-1.024172788364090397e-01,3.906988370742294214e-01,-6.005562516324820521e-01,2.767036814596764982e-01
2.050400000000000134e+01,-9.027858328056179160e-02,3.927107541539974767e-01,-5.988500366021241028e-01,2.837429368006860186e-01
2.051599999999999824e+01,-7.811297826631305452e-02,3.944003369520060476e-01,-5.969987984956605098e-01,2.907485304917684643e-01
2.052799999999999869e+01,-6.592681974044010962e-02,3.957668206794082155e-01,-5.950030039423922501e-01,2.977180172259762392e-01
2.053999999999999915e+01,-5.372643839189231857e-02,3.968094500254315538e-01,-5.928631001500870301e-01,3.046489663539107551e-01
2.055199999999999960e+01,-4.151814648148151321e-02,3.975274723259506482e-01,-5.905795125266826151e-01,3.115389576176175179e-01
2.056400000000000006e+01,-2.930824523695672867e-02,3.979201309935887498e-01,-5.881526424664356156e-01,3.183855766705408485e-01
2.057600000000000051e+01,-1.710303282352582457e-02,3.979866592273924586e-01,-5.855828653075786372e-01,3.251864103790882976e-01
2.058800000000000097e+01,-4.908812901635297918e-03,3.977262740214919101e-01,-5.828705284693679323e-01,3.319390419005522341e-01
2.060000000000000142e+01,7.268096214435709572e-03,3.971381704938044543e-01,-5.800159497773835771e-01,3.386410455313585977e-01
2.061199999999999832e+01,1.942135178180528013e-02,3.962215165577829823e-01,-5.770194159870449813e-01,3.452899813188077260e-01
2.062399999999999878e+01,3.154457622086052904e-02,3.949754479624933978e-01,-5.738811815165449914e-01,3.518833894287199948e-01
2.063599999999999923e+01,4.363134605467375998e-02,3.933990637289334069e-01,-5.706014674018845545e-01,3.584187842605928154e-01
2.064799999999999969e+01,5.567518017511916689e-02,3.914914220135167211e-01,-5.671804604882115797e-01,3.648936483012016341e-01
2.066000000000000014e+01,6.766952741288582984e-02,3.892515364330905725e-01,-5.636183128735482439e-01,3.713054257068105768e-01
2.067200000000000060e+01,7.960775338684618341e-02,3.866783728897374983e-01,-5.599151416229202205e-01,3.776515156035445964e-01
2.068400000000000105e+01,9.148312660646916450e-02,3.837708469379979004e-01,-5.560710287731837065e-01,3.839292650948573082e-01
2.069600000000000151e+01,1.032888037993226621e-01,3.805278217420657305e-01,-5.520860216512762930e-01,3.901359619645173860e-01
2.070799999999999841e+01,1.150178144341747061e-01,3.769481066760236865e-01,-5.479601335313816213e-01,3.962688270631001819e-01
2.071999999999999886e+01,1.266630444088824858e-01,3.730304566263000776e-01,-5.436933446594872654e-01,4.023250063656883535e-01
2.073199999999999932e+01,1.382172188710484861e-01,3.687735720623892544e-01,-5.392856036771709327e-01,4.083015626882610660e-01
2.074399999999999977e+01,1.496728841386968656e-01,3.641760999494011997e-01,-5.347368294800664001e-01,4.141954670503449898e-01
2.075600000000000023e+01,1.610223886876002986e-01,3.592366355844259784e-01,-5.300469135505105900e-01,4.200035896716343142e-01
2.076800000000000068e+01,1.722578631718928999e-01,3.539537254479240280e-01,-5.252157228082374729e-01,4.257226905908035319e-01
2.078000000000000114e+01,1.833711994450375748e-01,3.483258711715520595e-01,-5.202431030278005242e-01,4.313494098954829270e-01
2.079200000000000159e+01,1.943540285493204345e-01,3.423515347350399862e-01,-5.151288828766489303e-01,4.368802575534917465e-01
2.080399999999999849e+01,2.051976976439062739e-01,3.360291450170211913e-01,-5.098728786334686403e-01,4.423116028369551422e-01
2.081599999999999895e+01,2.158932458443009184e-01,3.293571058381560279e-01,-5.044748996526127183e-01,4.476396633329735586e-01
2.082799999999999940e+01,2.264313789498809126e-01,3.223338056496076187e-01,-4.989347546471599726e-01,4.528604935370913465e-01
2.083999999999999986e+01,2.368024430414445436e-01,3.149576290358457320e-01,-4.932522588703612820e-01,4.579699730291476589e-01
2.085200000000000031e+01,2.469963969373410451e-01,3.072269702181679163e-01,-4.874272422830730478e-01,4.629637942351116919e-01
2.086400000000000077e+01,2.570027835053145804e-01,2.991402487640661967e-01,-4.814595588031362339e-01,4.678374497835353085e-01
2.087600000000000122e+01,2.668106998378012573e-01,2.906959277278165499e-01,-4.753490967416104662e-01,4.725862194712910913e-01
2.088800000000000168e+01,2.764087663115065707e-01,2.818925344694038770e-01,-4.690957905402917127e-01,4.772051568605639171e-01
2.089999999999999858e+01,2.857850945680310839e-01,2.727286844221320505e-01,-4.626996339350102905e-01,4.816890755377571942e-01
2.091199999999999903e+01,2.949272544715972888e-01,2.632031081039427622e-01,-4.561606946797657214e-01,4.860325350753236240e-01
2.092399999999999949e+01,3.038222401229637715e-01,2.533146816936220347e-01,-4.494791309778236044e-01,4.902298267496952855e-01
2.093599999999999994e+01,3.124564350362061815e-01,2.430624615203384742e-01,-4.426552097772188943e-01,4.942749590828667827e-01
2.094800000000000040e+01,3.208155766175030399e-01,2.324457228435007905e-01,-4.356893270998103973e-01,4.981616432918794524e-01
2.096000000000000085e+01,3.288847201234346707e-01,2.214640033291143395e-01,-4.285820305846819722e-01,5.018832787499759585e-01
2.097200000000000131e+01,3.366482023211662677e-01,2.101171516585165766e-01,-4.213340444382701055e-01,5.054329385857602164e-01
2.098400000000000176e+01,3.440896051251908783e-01,1.984053817349678561e-01,-4.139462969947164672e-01,5.088033555727518031e-01
2.099599999999999866e+01,3.511917195459707264e-01,1.863293329824508571e-01,-4.064199511002975496e-01,5.119869084916516266e-01
2.100799999999999912e+01,3.579365103558718175e-01,1.738901372582901950e-01,-3.987564375448919840e-01,5.149756091818582515e-01
2.101999999999999957e+01,3.643050819582198119e-01,1.610894929259334418e-01,-3.909574917708192876e-01,5.177610905377483252e-01
2.103200000000000003e+01,3.702776460373940481e-01,1.479297466547686846e-01,-3.830251940941812316e-01,5.203345957494203144e-01
2.104400000000000048e+01,3.758334916725031838e-01,1.344139835290565355e-01,-3.749620136754906463e-01,5.226869691373772220e-01
2.105600000000000094e+01,3.809509587156953425e-01,1.205461260554132330e-01,-3.667708564736352761e-01,5.248086489865037008e-01
2.106800000000000139e+01,3.856074153694383222e-01,1.063310426557522032e-01,-3.584551174090506165e-01,5.266896628469495134e-01
2.107999999999999829e+01,3.897792410461656254e-01,9.177466621708949002e-02,-3.500187369469635601e-01,5.283196258385035593e-01
2.109199999999999875e+01,3.934418157591896836e-01,7.688412323778887059e-02,-3.414662622879947596e-01,5.296877425708579334e-01
2.110399999999999920e+01,3.965695174761565411e-01,6.166787405772825026e-02,-3.328029133195198330e-01,5.307828133748025978e-01
2.111599999999999966e+01,3.991357290655739298e-01,4.613586458254640560e-02,-3.240346534345656115e-01,5.315932456286363017e-01
2.112800000000000011e+01,4.011128566823135566e-01,3.029968980473560919e-02,-3.151682652635224846e-01,5.321070710592604724e-01
2.114000000000000057e+01,4.024723616682013283e-01,1.417276928027843934e-02,-3.062114312844815278e-01,5.323119699976686103e-01
2.115200000000000102e+01,4.031848082862338201e-01,-2.229465467635582086e-03,-2.971728191777551764e-01,5.321953036722372188e-01
2.116400000000000148e+01,4.032199298579079993e-01,-1.888937188412476847e-02,-2.880621716657004727e-01,5.317441557282513998e-01
2.117599999999999838e+01,4.025467161271256145e-01,-3.578688622024371602e-02,-2.788904004269041059e-01,5.309453842655017519e-01
2.118799999999999883e+01,4.011335249237351075e-01,-5.289930319932505121e-02,-2.696696834905085716e-01,5.297856857836038547e-01
2.119999999999999929e+01,3.989482214351711686e-01,-7.020104687798291165e-02,-2.604135652985576366e-01,5.282516725119461576e-01
2.121199999999999974e+01,3.959583486031793553e-01,-8.766343459142082739e-02,-2.511370583682168700e-01,5.263299646714239000e-01
2.122400000000000020e+01,3.921313323284249530e-01,-1.052544364877409794e-01,-2.418567451892340014e-01,5.240072992606045199e-01
2.123600000000000065e+01,3.874347252693662313e-01,-1.229384338690888145e-01,-2.325908786528076422e-01,5.212706569702459936e-01
2.124800000000000111e+01,3.818364930396436208e-01,-1.406759803720570023e-01,-2.233594789258586122e-01,5.181074087959165464e-01
2.126000000000000156e+01,3.753053465128542987e-01,-1.584235709362031841e-01,-2.141844242607624516e-01,5.145054838259960350e-01
2.127199999999999847e+01,3.678111237031623237e-01,-1.761334245231925555e-01,-2.050895327687327907e-01,5.104535595169210627e-01
2.128399999999999892e+01,3.593252242692164256e-01,-1.937532876488436973e-01,-1.961006316923026294e-01,5.059412755131044159e-01
2.129599999999999937e+01,3.498210990487249372e-01,-2.112262669566943585e-01,-1.872456101998878908e-01,5.009594717085057436e-01
2.130799999999999983e+01,3.392747961310734750e-01,-2.284907002653707164e-01,-1.785544512090330438e-01,4.955004507628255617e-01
2.132000000000000028e+01,3.276655637754767869e-01,-2.454800767204785572e-01,-1.700592372466801228e-01,4.895582646611691957e-01
2.133200000000000074e+01,3.149765089443988253e-01,-2.621230178195586569e-01,-1.617941249025058870e-01,4.831290241269804997e-01
2.134400000000000119e+01,3.011953083154436661e-01,-2.783433320837791491e-01,-1.537952820604513715e-01,4.762112287532913046e-01
2.135600000000000165e+01,2.863149663393703137e-01,-2.940601569345420163e-01,-1.461007818461814711e-01,4.688061146020642833e-01
2.136799999999999855e+01,2.703346122238890481e-01,-3.091882017926800286e-01,-1.387504471534168893e-01,4.609180147394050242e-01
2.137999999999999901e+01,2.532603246618155834e-01,-3.236381064336617541e-01,-1.317856397644397715e-01,4.525547267409716912e-01
2.139199999999999946e+01,2.351059697373812929e-01,-3.373169280744567344e-01,-1.252489885177273665e-01,4.437278796469043551e-01
2.140399999999999991e+01,2.158940338214497823e-01,-3.501287694026990471e-01,-1.191840517567613195e-01,4.344532912159661531e-01
2.141600000000000037e+01,1.956564295340549875e-01,-3.619755576561778931e-01,-1.136349104728651971e-01,4.247513046915393220e-01
2.142800000000000082e+01,1.744352491857819043e-01,-3.727579818077264573e-01,-1.086456901750971760e-01,4.146470927352713942e-01
2.144000000000000128e+01,1.522834367318085802e-01,-3.823765908247247491e-01,-1.042600116087234324e-01,4.041709148165966714e-01
2.145199999999999818e+01,1.292653464523130236e-01,-3.907330508200219099e-01,-1.005203730023726816e-01,3.933583132953943906e-01
2.146399999999999864e+01,1.054571546151766848e-01,-3.977315527248267979e-01,-9.746746952141618903e-02,3.822502328416677031e-01
2.147599999999999909e+01,8.094708960759684768e-02,-4.032803550107825208e-01,-9.513945896975241345e-02,3.708930478468283054e-01
2.148799999999999955e+01,5.583544676578267030e-02,-4.072934381838121398e-01,-9.357118639611596012e-02,3.593384832361370962e-01
2.150000000000000000e+01,3.023435667979579994e-02,-4.096922395891157698e-01,-9.279338395794903271e-02,3.476434157115020351e-01
2.151200000000000045e+01,4.267280328616007701e-03,-4.104074289352416804e-01,-9.283186596256137735e-02,3.358695450210489319e-01
2.152400000000000091e+01,-2.193178887021475162e-02,-4.093806773903759244e-01,-9.370674218979099801e-02,3.240829283958450713e-01
2.153600000000000136e+01,-4.821942715356979797e-02,-4.065663667198826103e-01,-9.543167512573422218e-02,3.123533757736247640e-01
2.154800000000000182e+01,-7.444418691283380407e-02,-4.019331803431201999e-01,-9.801320832220106194e-02,3.007537087205625626e-01
2.155999999999999872e+01,-1.004482955255054238e-01,-3.954655159867484504e-01,-1.014501934820286472e-01,2.893588918528480769e-01
2.157199999999999918e+01,-1.260696211349443541e-01,-3.871646603101325801e-01,-1.057333428482828547e-01,2.782450517520731470e-01
2.158399999999999963e+01,-1.511438664706549750e-01,-3.770496698311211481e-01,-1.108449309186666093e-01,2.674884044921041482e-01
2.159600000000000009e+01,-1.755069389396678170e-01,-3.651579098276173663e-01,-1.167586653953758824e-01,2.571641185314522682e-01
2.160800000000000054e+01,-1.989974339565931671e-01,-3.515452135119960797e-01,-1.234397417202835190e-01,2.473451444420567691e-01
2.162000000000000099e+01,-2.214591597287736691e-01,-3.362856372677048289e-01,-1.308450887723207889e-01,2.381010463365790808e-01
2.163200000000000145e+01,-2.427436262662230337e-01,-3.194708034210772540e-01,-1.389238056776698760e-01,2.294968715862066300e-01
2.164399999999999835e+01,-2.627124198286784340e-01,-3.012088389815947842e-01,-1.476177816626360051e-01,2.215920952634740093e-01
2.165599999999999881e+01,-2.812393866560154443e-01,-2.816229359422287581e-01,-1.568624829844281754e-01,2.144396736147400062e-01
2.166799999999999926e+01,-2.982125566256847993e-01,-2.608495749426834598e-01,-1.665878837412467783e-01,2.080852368374604133e-01
2.167999999999999972e+01,-3.135357480738624192e-01,-2.390364682583850653e-01,-1.767195112876482066e-01,2.025664457381600170e-01
2.169200000000000017e+01,-3.271298087233516227e-01,-2.163402892346789064e-01,-1.871795724742913170e-01,1.979125298471090255e-01
2.170400000000000063e+01,-3.389334635507667004e-01,-1.929242627288856593e-01,-1.978881242766381554e-01,1.941440167376859982e-01
2.171600000000000108e+01,-3.489037574091961580e-01,-1.689556944526117710e-01,-2.087642517054117408e-01,1.912726541728989316e-01
2.172800000000000153e+01,-3.570160971622638457e-01,-1.446035162604530910e-01,-2.197272171724177492e-01,1.893015188145754091e-01
2.173999999999999844e+01,-3.632639139018479790e-01,-1.200359196754473834e-01,-2.306975485376097090e-01,1.882252980737076919e-01
2.175199999999999889e+01,-3.676579795905109416e-01,-9.541814182666578936e-02,-2.415980375811035141e-01,1.880307256571847052e-01
2.176399999999999935e+01,-3.702254234942768951e-01,-7.091045726279900097e-02,-2.523546262338545176e-01,1.886971467629196264e-01
2.177599999999999980e+01,-3.710085016244118461e-01,-4.666641668307945634e-02,-2.628971641259848502e-01,1.901971858459342024e-01
2.178800000000000026e+01,-3.700631769388157410e-01,-2.283136041280662068e-02,-2.731600274341587919e-01,1.924974884441682244e-01
2.180000000000000071e+01,-3.674575693729902892e-01,4.587786888320413378e-04,-2.830825952291595171e-01,1.955595086185682729e-01
2.181200000000000117e+01,-3.632703331990667639e-01,2.307838051705032867e-02,-2.926095852082531423e-01,1.993403149375214678e-01
2.182400000000000162e+01,-3.575890152264182276e-01,4.491275974276802418e-02,-3.016912555955648112e-01,2.037933903668975866e-01
2.183599999999999852e+01,-3.505084415275082632e-01,6.585852220624940911e-02,-3.102834839508490372e-01,2.088694046267724758e-01
2.184799999999999898e+01,-3.421291732964029109e-01,8.582368040688416466e-02,-3.183477365749683985e-01,2.145169412529912278e-01
2.185999999999999943e+01,-3.325560647006732262e-01,1.047275578369425558e-01,-3.258509441494249481e-01,2.206831654842462409e-01
2.187199999999999989e+01,-3.218969476826777920e-01,1.225005149694900625e-01,-3.327653002706951191e-01,2.273144229484952428e-01
