Frequency, Re(SMin1Min1), Im(SMin1Min1), Re(SMax1Min1), Im(SMax1Min1)
2.000000000000000000e+01,-4.703412083918280806e-01,-1.092394151605212693e-01,-4.576486860635243237e-01,-2.140067688054713216e-02
2.001200000000000045e+01,-4.680837481764359431e-01,-9.271692893114756584e-02,-4.640551997660343764e-01,-1.627725374264891306e-02
2.002400000000000091e+01,-4.652828201005406172e-01,-7.630229913878876224e-02,-4.703216968782640839e-01,-1.093579120631992148e-02
2.003600000000000136e+01,-4.619422309235693413e-01,-6.001569154927480221e-02,-4.764403753622872828e-01,-5.381066186339563025e-03
2.004799999999999827e+01,-4.580666215673384611e-01,-4.387704824523857433e-02,-4.824036514875792991e-01,3.818491846190350892e-04
2.005999999999999872e+01,-4.536614462971724215e-01,-2.790604757976208189e-02,-4.882041716895105243e-01,6.347601676616044034e-03
2.007199999999999918e+01,-4.487329495581801608e-01,-1.212206625314672312e-02,-4.938348233000787735e-01,1.251057160112045014e-02
2.008399999999999963e+01,-4.432881406813131142e-01,3.455856322048722531e-03,-4.992887441275259963e-01,1.886488787023155381e-02
2.009600000000000009e+01,-4.373347666862539840e-01,1.880905122252647665e-02,-5.045593308697566837e-01,2.540444337805696645e-02
2.010800000000000054e+01,-4.308812834197267572e-01,3.391925066151212781e-02,-5.096402463557264673e-01,3.212291060605225457e-02
2.012000000000000099e+01,-4.239368252758526912e-01,4.876861598308316476e-02,-5.145254256167783868e-01,3.901375735511045106e-02
2.013200000000000145e+01,-4.165111737521217106e-01,6.333976292954801579e-02,-5.192090807989430123e-01,4.607026250877716694e-02
2.014399999999999835e+01,-4.086147250984329959e-01,7.761578413222255945e-02,-5.236857049340608583e-01,5.328553173409114607e-02
2.015599999999999881e+01,-4.002584573177832561e-01,9.158026880035920192e-02,-5.279500745964909036e-01,6.065251303008684786e-02
2.016799999999999926e+01,-3.914538967773532607e-01,1.052173196077463152e-01,-5.319972514780643147e-01,6.816401203680666487e-02
2.017999999999999972e+01,-3.822130846851530261e-01,1.185115668005596729e-01,-5.358225829215669256e-01,7.581270702241994786e-02
2.019200000000000017e+01,-3.725485436820535345e-01,1.314481795743101811e-01,-5.394217014586775161e-01,8.359116347019598936e-02
2.020400000000000063e+01,-3.624732447919231659e-01,1.440128747899345474e-01,-5.427905234045408145e-01,9.149184819221063691e-02
2.021600000000000108e+01,-3.520005749623517088e-01,1.561919231224916937e-01,-5.459252465658204212e-01,9.950714290207574031e-02
2.022800000000000153e+01,-3.411443054171751643e-01,1.679721527559323579e-01,-5.488223471242814622e-01,1.076293571844283425e-01
2.023999999999999844e+01,-3.299185610275051639e-01,1.793409507582938156e-01,-5.514785757617896023e-01,1.158507408050614695e-01
2.025199999999999889e+01,-3.183377908932752409e-01,1.902862622889497368e-01,-5.538909530962542460e-01,1.241634953113933265e-01
2.026399999999999935e+01,-3.064167403087942332e-01,2.007965878073980914e-01,-5.560567645014226068e-01,1.325597848795497247e-01
2.027599999999999980e+01,-2.941704242677329884e-01,2.108609784669901455e-01,-5.579735543856251256e-01,1.410317463705523522e-01
2.028800000000000026e+01,-2.816141026418421678e-01,2.204690298902311218e-01,-5.596391200070188754e-01,1.495714985644852335e-01
2.030000000000000071e+01,-2.687632571466482267e-01,2.296108745327716527e-01,-5.610515049041284730e-01,1.581711505483130442e-01
2.031200000000000117e+01,-2.556335701841561669e-01,2.382771728513761178e-01,-5.622089920218598103e-01,1.668228092393418127e-01
2.032400000000000162e+01,-2.422409056299835994e-01,2.464591034968675876e-01,-5.631100966135776931e-01,1.755185860329645520e-01
2.033599999999999852e+01,-2.286012916077907742e-01,2.541483527560455813e-01,-5.637535590000697372e-01,1.842506025699127969e-01
2.034799999999999898e+01,-2.147309052708704369e-01,2.613371034670823323e-01,-5.641383372658971274e-01,1.930109956245927016e-01
2.035999999999999943e+01,-2.006460595863648333e-01,2.680180236302803776e-01,-5.642635999728133900e-01,2.017919211226956167e-01
2.037199999999999989e+01,-1.863631920952410759e-01,2.741842549312505928e-01,-5.641287189686626791e-01,2.105855573024637550e-01
2.038400000000000034e+01,-1.718988555986000477e-01,2.798294013855778806e-01,-5.637332623685641364e-01,2.193841070403057814e-01
2.039600000000000080e+01,-1.572697107005646966e-01,2.849475183038254755e-01,-5.630769877828603054e-01,2.281797993675051262e-01
2.040800000000000125e+01,-1.424925201188244339e-01,2.895331017631187498e-01,-5.621598358637384107e-01,2.369648902107331090e-01
2.042000000000000171e+01,-1.275841446571186477e-01,2.935810787567407765e-01,-5.609819242392939387e-01,2.457316623947226608e-01
2.043199999999999861e+01,-1.125615407193830270e-01,2.970867981767273402e-01,-5.595435419001646427e-01,2.544724249509390801e-01
2.044399999999999906e+01,-9.744175923338671552e-02,3.000460227665581181e-01,-5.578451440998133393e-01,2.631795117812301688e-01
2.045599999999999952e+01,-8.224194584272206954e-02,3.024549221622181983e-01,-5.558873478249957145e-01,2.718452797301318391e-01
2.046799999999999997e+01,-6.697934221983514735e-02,3.043100671206385721e-01,-5.536709278879990981e-01,2.804621061239315760e-01
2.048000000000000043e+01,-5.167128834976860569e-02,3.056084250152866222e-01,-5.511968136868328205e-01,2.890223858383660915e-01
2.049200000000000088e+01,-3.633522563417604379e-02,3.063473566600474207e-01,-5.484660866739139440e-01,2.975185279600692789e-01
2.050400000000000134e+01,-2.098870066777725960e-02,3.065246145048692861e-01,-5.454799785677302282e-01,3.059429521095896054e-01
2.051599999999999824e+01,-5.649369544639145854e-03,3.061383422307493718e-01,-5.422398703358375371e-01,3.142880844956890685e-01
2.052799999999999869e+01,9.664997440921538688e-03,3.051870757575534387e-01,-5.387472919712099628e-01,3.225463537718607498e-01
2.053999999999999915e+01,2.493651082486969192e-02,3.036697456665188311e-01,-5.350039230777797750e-01,3.307101867664219985e-01
2.055199999999999960e+01,4.014715685107866916e-02,3.015856810303741420e-01,-5.310115942748208084e-01,3.387720041572476193e-01
2.056400000000000006e+01,5.527879230048414472e-02,2.989346146378118463e-01,-5.267722894240364218e-01,3.467242161610431528e-01
2.057600000000000051e+01,7.031313936501409900e-02,2.957166895959345010e-01,-5.222881486779028526e-01,3.545592183053165036e-01
2.058800000000000097e+01,8.523178064858551173e-02,2.919324672939828114e-01,-5.175614723429459163e-01,3.622693873486288463e-01
2.060000000000000142e+01,1.000161543677357684e-01,2.875829367141244375e-01,-5.125947255476038800e-01,3.698470774118565174e-01
2.061199999999999832e+01,1.146475498161271950e-01,2.826695250801570802e-01,-5.073905437011474451e-01,3.772846163796607089e-01
2.062399999999999878e+01,1.291071031510782341e-01,2.771941098420908633e-01,-5.019517387277694365e-01,3.845743026279125343e-01
2.063599999999999923e+01,1.433757935563506614e-01,2.711590320036143531e-01,-4.962813060587887293e-01,3.917084021290844209e-01
2.064799999999999969e+01,1.574344398347714835e-01,2.645671108095533630e-01,-4.903824323655485151e-01,3.986791459843770369e-01
2.066000000000000014e+01,1.712636974861463379e-01,2.574216598214768559e-01,-4.842585040164439358e-01,4.054787284283390969e-01
2.067200000000000060e+01,1.848440563313384910e-01,2.497265044205883577e-01,-4.779131162431221602e-01,4.120993053495775604e-01
2.068400000000000105e+01,1.981558387518707054e-01,2.414860007877779879e-01,-4.713500830033955369e-01,4.185329933698770932e-01
2.069600000000000151e+01,2.111791986260880549e-01,2.327050564203544114e-01,-4.645734475314798884e-01,4.247718695239392495e-01
2.070799999999999841e+01,2.238941210575922935e-01,2.233891522531215590e-01,-4.575874935696251367e-01,4.308079715831795720e-01
2.071999999999999886e+01,2.362804230092141466e-01,2.135443664575763234e-01,-4.503967572787632712e-01,4.366332990697545657e-01
2.073199999999999932e+01,2.483177549757104585e-01,2.031773999966390576e-01,-4.430060398291605916e-01,4.422398150112169524e-01
2.074399999999999977e+01,2.599856038506920264e-01,1.922956040129818744e-01,-4.354204206748593098e-01,4.476194484922039196e-01
2.075600000000000023e+01,2.712632971672278015e-01,1.809070091265537472e-01,-4.276452715176065067e-01,4.527640980668987125e-01
2.076800000000000068e+01,2.821300089169458403e-01,1.690203567107702587e-01,-4.196862709666824287e-01,4.576656361050469579e-01
2.078000000000000114e+01,2.925647671789730064e-01,1.566451322069811192e-01,-4.115494199001452635e-01,4.623159141545538642e-01
2.079200000000000159e+01,3.025464638168616216e-01,1.437916005230039651e-01,-4.032410575302747824e-01,4.667067694149786838e-01
2.080399999999999849e+01,3.120538665287624913e-01,1.304708435434834279e-01,-3.947678781710888263e-01,4.708300324285403793e-01
2.081599999999999895e+01,3.210656335628951918e-01,1.166947997576061047e-01,-3.861369486985772315e-01,4.746775361078535704e-01
2.082799999999999940e+01,3.295603314361137959e-01,1.024763059831963197e-01,-3.773557266845158908e-01,4.782411262324704482e-01
2.083999999999999986e+01,3.375164560183595563e-01,8.782914113501832931e-02,-3.684320791721945043e-01,4.815126735589231322e-01
2.085200000000000031e+01,3.449124573686395134e-01,7.276807194983316018e-02,-3.593743020472447980e-01,4.844840877009864433e-01
2.086400000000000077e+01,3.517267687291423250e-01,5.730890054065052724e-02,-3.501911399388144552e-01,4.871473329477098990e-01
2.087600000000000122e+01,3.579378401023611822e-01,4.146851360811829729e-02,-3.408918065655817120e-01,4.894944461964383375e-01
2.088800000000000168e+01,3.635241768511683902e-01,2.526493308797612275e-02,-3.314860054179044058e-01,4.915175571855474601e-01
2.089999999999999858e+01,3.684643837731323979e-01,8.717367959916670628e-03,-3.219839506414862162e-01,4.932089112171918477e-01
2.091199999999999903e+01,3.727372151073807816e-01,-8.153733114828086090e-03,-3.123963879598384286e-01,4.945608945630408093e-01
2.092399999999999949e+01,3.763216309343067612e-01,-2.532662872207261384e-02,-3.027346154425370472e-01,4.955660627458606804e-01
2.093599999999999994e+01,3.791968604247722419e-01,-4.277823165111868664e-02,-2.930105038940180040e-01,4.962171718862468106e-01
2.094800000000000040e+01,3.813424723852116838e-01,-6.048405641099531549e-02,-2.832365166039099713e-01,4.965072132964765683e-01
2.096000000000000085e+01,3.827384535276306399e-01,-7.841816791269265452e-02,-2.734257281647515803e-01,4.964294514921756551e-01
2.097200000000000131e+01,3.833652948678749062e-01,-9.655313200091707182e-02,-2.635918420268996698e-01,4.959774657767344053e-01
2.098400000000000176e+01,3.832040866208132335e-01,-1.148599685988084818e-01,-2.537492064238204281e-01,4.951451955329249088e-01
2.099599999999999866e+01,3.822366219164737289e-01,-1.333081083109513287e-01,-2.439128282642849532e-01,4.939269893306949544e-01
2.100799999999999912e+01,3.804455096055778807e-01,-1.518653534129155991e-01,-2.340983845517179973e-01,4.923176579292330435e-01
2.101999999999999957e+01,3.778142963555612410e-01,-1.704978442382573955e-01,-2.243222308557910882e-01,4.903125312149819170e-01
2.103200000000000003e+01,3.743275981581715706e-01,-1.891700320555393944e-01,-2.146014063277079942e-01,4.879075190749697088e-01
2.104400000000000048e+01,3.699712412763507818e-01,-2.078446596063068530e-01,-2.049536347195984876e-01,4.850991761565699445e-01
2.105600000000000094e+01,3.647324125507465098e-01,-2.264827505490299153e-01,-1.953973208405042350e-01,4.818847704104133878e-01
2.106800000000000139e+01,3.585998188644293205e-01,-2.450436091213671896e-01,-1.859515418576788426e-01,4.782623552526923394e-01
2.107999999999999829e+01,3.515638554280856587e-01,-2.634848313917997342e-01,-1.766360328332562402e-01,4.742308451166245553e-01
2.109199999999999875e+01,3.436167823971608692e-01,-2.817623295192808741e-01,-1.674711658737500219e-01,4.697900940906210021e-01
2.110399999999999920e+01,3.347529091677779456e-01,-2.998303704734441855e-01,-1.584779222645165964e-01,4.649409772631708515e-01
2.111599999999999966e+01,3.249687855204509424e-01,-3.176416306859745076e-01,-1.496778569640755951e-01,4.596854743121592257e-01
2.112800000000000011e+01,3.142633985912772765e-01,-3.351472681024535438e-01,-1.410930548454160660e-01,4.540267547901671863e-01
2.114000000000000057e+01,3.026383744510909857e-01,-3.522970130817827950e-01,-1.327460780938824192e-01,4.479692644682563007e-01
2.115200000000000102e+01,2.900981828666379658e-01,-3.690392795439328966e-01,-1.246599042049030548e-01,4.415188120100125846e-01
2.116400000000000148e+01,2.766503436070142929e-01,-3.853212976945145085e-01,-1.168578540704742763e-01,4.346826551569242247e-01
2.117599999999999838e+01,2.623056324472083367e-01,-4.010892695546079412e-01,-1.093635097014113294e-01,4.274695855169490244e-01
2.118799999999999883e+01,2.470782848124111197e-01,-4.162885483953638888e-01,-1.022006212031163069e-01,4.198900109625653965e-01
2.119999999999999929e+01,2.309861948067570836e-01,-4.308638430183191481e-01,-9.539300270598358167e-02,4.119560345646334221e-01
2.121199999999999974e+01,2.140511071827607692e-01,-4.447594476351469650e-01,-8.896441704679264317e-02,4.036815289162186127e-01
2.122400000000000020e+01,1.962987996385521794e-01,-4.579194978853557974e-01,-8.293844910366715562e-02,3.950822046383926645e-01
2.123600000000000065e+01,1.777592526837378506e-01,-4.702882532906031421e-01,-7.733836780273453670e-02,3.861756718099742525e-01
2.124800000000000111e+01,1.584668041962933316e-01,-4.818104061833310969e-01,-7.218697693725825704e-02,3.769814930270753983e-01
2.126000000000000156e+01,1.384602857065386217e-01,-4.924314168707676909e-01,-6.750645506707632360e-02,3.675212267776393205e-01
2.127199999999999847e+01,1.177831373930068593e-01,-5.020978745096967844e-01,-6.331818489422774698e-02,3.578184598118990811e-01
2.128399999999999892e+01,9.648349876069405029e-02,-5.107578828807967097e-01,-5.964257263587306734e-02,3.478988272018745387e-01
2.129599999999999937e+01,7.461427199470793692e-02,-5.183614699728602560e-01,-5.649885803365655573e-02,3.377900188110077861e-01
2.130799999999999983e+01,5.223315503867662080e-02,-5.248610200271929260e-01,-5.390491574502050826e-02,3.275217709365123575e-01
2.132000000000000028e+01,2.940264153255184310e-02,-5.302117264610366476e-01,-5.187704895209680617e-02,3.171258419389257344e-01
2.133200000000000074e+01,6.189984848790828359e-03,-5.343720638968050274e-01,-5.042977609333864492e-02,3.066359707301473669e-01
2.134400000000000119e+01,-1.733287642325699249e-02,-5.373042773804123096e-01,-4.957561166846143758e-02,2.960878170462880044e-01
2.135600000000000165e+01,-4.108943409540032760e-02,-5.389748867845992608e-01,-4.932484208610895399e-02,2.855188824758322919e-01
2.136799999999999855e+01,-6.499876958573230779e-02,-5.393552043662181994e-01,-4.968529751536768929e-02,2.749684112359397359e-01
2.137999999999999901e+01,-8.897575919034673986e-02,-5.384218634792869995e-01,-5.066212066876638748e-02,2.644772696770596454e-01
2.139199999999999946e+01,-1.129313279885820753e-01,-5.361573565310649991e-01,-5.225753339114537488e-02,2.540878034334606572e-01
2.140399999999999991e+01,-1.367727551656117424e-01,-5.325505803903316515e-01,-5.447060186564504913e-02,2.438436710079983638e-01
2.141600000000000037e+01,-1.604040339212293442e-01,-5.275973875875537011e-01,-5.729700119062729191e-02,2.337896523661928405e-01
2.142800000000000082e+01,-1.837262897288138852e-01,-5.213011417435973183e-01,-6.072878005223524694e-02,2.239714307995213927e-01
2.144000000000000128e+01,-2.066382615530516498e-01,-5.136732756668006550e-01,-6.475412624760072677e-02,2.144353458848306526e-01
2.145199999999999818e+01,-2.290368517643980029e-01,-5.047338503855121061e-01,-6.935713394479370297e-02,2.052281148030569713e-01
2.146399999999999864e+01,-2.508177519260281763e-01,-4.945121129277412209e-01,-7.451757385024826430e-02,1.963965185796943125e-01
2.147599999999999909e+01,-2.718761533804882058e-01,-4.830470497849275180e-01,-8.021066795854239762e-02,1.879870489758485586e-01
2.148799999999999955e+01,-2.921075536037831544e-01,-4.703879315352093027e-01,-8.640687136292807269e-02,1.800455108117932357e-01
2.150000000000000000e+01,-3.114086715541176109e-01,-4.565948418532432829e-01,-9.307166480090316163e-02,1.726165734877199431e-01
2.151200000000000045e+01,-3.296784875889386957e-01,-4.417391808679826948e-01,-1.001653633026439866e-01,1.657432644529523158e-01
2.152400000000000091e+01,-3.468194257368093503e-01,-4.259041282957765628e-01,-1.076429486123817586e-01,1.594663964827658098e-01
2.153600000000000136e+01,-3.627386978547431085e-01,-4.091850457173756284e-01,-1.154539360727049602e-01,1.538239200239656379e-01
2.154800000000000182e+01,-3.773498299952210422e-01,-3.916897895536234353e-01,-1.235422904891299439e-01,1.488501918088526166e-01
2.155999999999999872e+01,-3.905743904903576924e-01,-3.735388965697751251e-01,-1.318464101736603333e-01,1.445751517370486572e-01
2.157199999999999918e+01,-4.023439359706967311e-01,-3.548655920929081886e-01,-1.402992038689781784e-01,1.410234021020054518e-01
2.158399999999999963e+01,-4.126021847002968035e-01,-3.358155578006813968e-01,-1.488282914175632354e-01,1.382131871008842328e-01
2.159600000000000009e+01,-4.213074149700920534e-01,-3.165463815537957748e-01,-1.573563655094076530e-01,1.361552767925313379e-01
2.160800000000000054e+01,-4.284350684880700588e-01,-2.972265974662872123e-01,-1.658017579974149502e-01,1.348517688644903512e-01
2.162000000000000099e+01,-4.339805134432297984e-01,-2.780342121234787855e-01,-1.740792591467933692e-01,1.342948342801331962e-01
2.163200000000000145e+01,-4.379618882557272941e-01,-2.591546053311479247e-01,-1.821012404113177274e-01,1.344654494396276545e-01
2.164399999999999835e+01,-4.404229047879588688e-01,-2.407776947304283433e-01,-1.897791291050272555e-01,1.353321778281483534e-01
2.165599999999999881e+01,-4.414354401543957307e-01,-2.230942676294183080e-01,-1.970252745004522077e-01,1.368500874821687585e-01
2.166799999999999926e+01,-4.411016924189312127e-01,-2.062914155756965795e-01,-2.037552271135822657e-01,1.389599152284109740e-01
2.167999999999999972e+01,-4.395556232628224924e-01,-1.905470623492786231e-01,-2.098904241518485259e-01,1.415876115140856095e-01
2.169200000000000017e+01,-4.369633690915231683e-01,-1.760236574967536660e-01,-2.153612330880451398e-01,1.446444162983389070e-01
2.170400000000000063e+01,-4.335222829417670898e-01,-1.628612153039337707e-01,-2.201102525576886793e-01,1.480276211656628982e-01
2.171600000000000108e+01,-4.294582867901601264e-01,-1.511700080219594289e-01,-2.240957083460929367e-01,1.516221590980081635e-01
2.172800000000000153e+01,-4.250212809229848565e-01,-1.410233600102648310e-01,-2.272947185881754595e-01,1.553031252206322765e-01
2.173999999999999844e+01,-4.204784834066623844e-01,-1.324511162356513949e-01,-2.297061464938966180e-01,1.589392655753398276e-01
2.175199999999999889e+01,-4.161057594389681591e-01,-1.254344476125945906e-01,-2.313527238343133507e-01,1.623973771921484177e-01
2.176399999999999935e+01,-4.121772357305336643e-01,-1.199026774941191198e-01,-2.322821278077655260e-01,1.655474483234675998e-01
2.177599999999999980e+01,-4.089537521207493587e-01,-1.157327425091889822e-01,-2.325667390237707577e-01,1.682682467490218825e-01
2.178800000000000026e+01,-4.066709405089505847e-01,-1.127517233374001060e-01,-2.323019040146398762e-01,1.704529568342772472e-01
2.180000000000000071e+01,-4.055278913511001226e-01,-1.107426033714406233e-01,-2.316026667575207809e-01,1.720143956682025355e-01
2.181200000000000117e+01,-4.056774251143249743e-01,-1.094530661796005722e-01,-2.305991034774892978e-01,1.728893256924352029e-01
2.182400000000000162e+01,-4.072189011233112166e-01,-1.086067787294943271e-01,-2.294305669614554732e-01,1.730414375821303363e-01
2.183599999999999852e+01,-4.101942673337664602e-01,-1.079162909799488007e-01,-2.282392895408266176e-01,1.724627009219851237e-01
2.184799999999999898e+01,-4.145877115676264713e-01,-1.070964748212305667e-01,-2.271638795580401826e-01,1.711729544674872594e-01
2.185999999999999943e+01,-4.203288743647629055e-01,-1.058773678464720175e-01,-2.263332569297199226e-01,1.692178033756744915e-01
