Frequency, Re(SMin1Min1), Im(SMin1Min1), Re(SMax1Min1), Im(SMax1Min1)
2.000000000000000000e+01,-5.246734460518694965e-01,-1.561674459370811785e-01,-4.451630079633949744e-01,-5.655349881128634432e-02
2.001200000000000045e+01,-5.244948093044542459e-01,-1.408585351884394654e-01,-4.512889911264402754e-01,-5.262078942660153302e-02
2.002400000000000091e+01,-5.238979318324207268e-01,-1.255765589233054924e-01,-4.573326461667666654e-01,-4.851386090948366092e-02
2.003600000000000136e+01,-5.228834068068486385e-01,-1.103347143095709665e-01,-4.632885422983654133e-01,-4.423502941060435817e-02
2.004799999999999827e+01,-5.214523072852801366e-01,-9.514615120204056309e-02,-4.691513465327418753e-01,-3.978680075281967182e-02
2.005999999999999872e+01,-5.196061802440418154e-01,-8.002395093781498880e-02,-4.749158314766345756e-01,-3.517186422509056831e-02
2.007199999999999918e+01,-5.173470394341729284e-01,-6.498110573232150633e-02,-4.805768826645672176e-01,-3.039308597780463264e-02
2.008399999999999963e+01,-5.146773571146879833e-01,-5.003049875268025110e-02,-4.861295054023449524e-01,-2.545350205605039981e-02
2.009600000000000009e+01,-5.116000547223564787e-01,-3.518488494044991199e-02,-4.915688311006036759e-01,-2.035631110882019784e-02
2.010800000000000054e+01,-5.081184925419844900e-01,-2.045687265034970906e-02,-4.968901230806954117e-01,-1.510486681343138453e-02
2.012000000000000099e+01,-5.042364584454800402e-01,-5.858906166126498505e-03,-5.020887818382858692e-01,-9.702670055133795143e-03
2.013200000000000145e+01,-4.999581557720743086e-01,8.596750851184024531e-03,-5.071603497532509719e-01,-4.153360902686416105e-03
2.014399999999999835e+01,-4.952881904248864764e-01,2.289803093337268447e-02,-5.121005152377585690e-01,1.539289579007102355e-03
2.015599999999999881e+01,-4.902315572622270023e-01,3.703307735060223926e-02,-5.169051163172803109e-01,7.371387638185388294e-03
2.016799999999999926e+01,-4.847936258639505280e-01,5.099025759542172298e-02,-5.215701436427483406e-01,1.333892522631911597e-02
2.017999999999999972e+01,-4.789801257547306457e-01,6.475817577532039238e-02,-5.260917429347082841e-01,1.943778842859173947e-02
2.019200000000000017e+01,-4.727971311675800981e-01,7.832568388928727587e-02,-5.304662168634963759e-01,2.566376589486768847e-02
2.020400000000000063e+01,-4.662510454310262453e-01,9.168189197113255084e-02,-5.346900263721217073e-01,3.201255723205014003e-02
2.021600000000000108e+01,-4.593485850638898138e-01,1.048161770876719356e-01,-5.387597914511836894e-01,3.847978131998346790e-02
2.022800000000000153e+01,-4.520967636608585472e-01,1.177181911864919606e-01,-5.426722913777237700e-01,4.506098451415431472e-02
2.023999999999999844e+01,-4.445028756514629031e-01,1.303778677935732155e-01,-5.464244644321795130e-01,5.175164869985712096e-02
2.025199999999999889e+01,-4.365744800135755166e-01,1.427854275668280493e-01,-5.500134071097567690e-01,5.854719916409175523e-02
2.026399999999999935e+01,-4.283193840211831360e-01,1.549313827168194158e-01,-5.534363728445959030e-01,6.544301225305476644e-02
2.027599999999999980e+01,-4.197456271038103037e-01,1.668065403113982714e-01,-5.566907702667713842e-01,7.243442278485011376e-02
2.028800000000000026e+01,-4.108614648931849800e-01,1.784020044852822895e-01,-5.597741610139140844e-01,7.951673118886949665e-02
2.030000000000000071e+01,-4.016753535297524769e-01,1.897091775806143965e-01,-5.626842571205556975e-01,8.668521034511483814e-02
2.031200000000000117e+01,-3.921959342990886666e-01,2.007197602483589416e-01,-5.654189180095862133e-01,9.393511209866811651e-02
2.032400000000000162e+01,-3.824320186653908382e-01,2.114257505442860563e-01,-5.679761471112193538e-01,1.012616734264008833e-01
2.033599999999999852e+01,-3.723925737658982937e-01,2.218194420570104852e-01,-5.703540881358362125e-01,1.086601222349309892e-01
2.034799999999999898e+01,-3.620867084271647274e-01,2.318934211083307217e-01,-5.725510210276608669e-01,1.161256827705945821e-01
2.035999999999999943e+01,-3.515236597607135360e-01,2.416405630692202711e-01,-5.745653576269519336e-01,1.236535806241503277e-01
2.037199999999999989e+01,-3.407127803925063536e-01,2.510540278372200840e-01,-5.763956370686307285e-01,1.312390473145580438e-01
2.038400000000000034e+01,-3.296635263772165203e-01,2.601272545232500844e-01,-5.780405209457917248e-01,1.388773244379424010e-01
2.039600000000000080e+01,-3.183854458453749259e-01,2.688539553975419771e-01,-5.794987882664001111e-01,1.465636673693104242e-01
2.040800000000000125e+01,-3.068881684281078437e-01,2.772281091463181246e-01,-5.807693302319864026e-01,1.542933485061966092e-01
2.042000000000000171e+01,-2.951813955015145652e-01,2.852439534920526709e-01,-5.818511448667657016e-01,1.620616600445651534e-01
2.043199999999999861e+01,-2.832748912896613236e-01,2.928959772313481369e-01,-5.827433315257793955e-01,1.698639162787829171e-01
2.044399999999999906e+01,-2.711784748626980823e-01,3.001789117454892741e-01,-5.834450853104943269e-01,1.776954554182658963e-01
2.045599999999999952e+01,-2.589020130640687922e-01,3.070877220394943041e-01,-5.839556914201932125e-01,1.855516409145237522e-01
2.046799999999999997e+01,-2.464554143986729395e-01,3.136175973663352656e-01,-5.842745194673125697e-01,1.934278622930651059e-01
2.048000000000000043e+01,-2.338486239117455456e-01,3.197639414934460023e-01,-5.844010177848780740e-01,2.013195354851627650e-01
2.049200000000000088e+01,-2.210916190866484832e-01,3.255223626693649064e-01,-5.843347077540277379e-01,2.092221026549857255e-01
2.050400000000000134e+01,-2.081944067882052218e-01,3.308886633489260820e-01,-5.840751781796732489e-01,2.171310315178042183e-01
2.051599999999999824e+01,-1.951670212771631219e-01,3.358588297360127761e-01,-5.836220797423973261e-01,2.250418141450549747e-01
2.052799999999999869e+01,-1.820195233204501273e-01,3.404290212036557017e-01,-5.829751195548834586e-01,2.329499652518938480e-01
2.053999999999999915e+01,-1.687620004214551717e-01,3.445955596521108055e-01,-5.821340558514617181e-01,2.408510199624550596e-01
2.055199999999999960e+01,-1.554045681942284596e-01,3.483549188666508756e-01,-5.810986928398101936e-01,2.487405310475044873e-01
2.056400000000000006e+01,-1.419573729057145017e-01,3.517037139380523314e-01,-5.798688757444310227e-01,2.566140656282320243e-01
2.057600000000000051e+01,-1.284305952105948279e-01,3.546386908104288138e-01,-5.784444860722869342e-01,2.644672013388244536e-01
2.058800000000000097e+01,-1.148344551040365036e-01,3.571567160229963678e-01,-5.768254371318931595e-01,2.722955219389906478e-01
2.060000000000000142e+01,-1.011792181188989059e-01,3.592547667147145685e-01,-5.750116698382150560e-01,2.800946123658283882e-01
2.061199999999999832e+01,-8.747520279550324851e-02,3.609299209635957184e-01,-5.730031488369941028e-01,2.878600532121734501e-01
2.062399999999999878e+01,-7.373278945391567585e-02,3.621793485359416920e-01,-5.707998589833006564e-01,2.955874146160628602e-01
2.063599999999999923e+01,-5.996243030107813177e-02,3.630003021244362915e-01,-5.684018022105304935e-01,3.032722495426453668e-01
2.064799999999999969e+01,-4.617466090804942663e-02,3.633901091590661658e-01,-5.658089948272184699e-01,3.109100864364461314e-01
2.066000000000000014e+01,-3.238011309546764971e-02,3.633461642795448032e-01,-5.630214652799635511e-01,3.184964212174717368e-01
2.067200000000000060e+01,-1.858952926967013392e-02,3.628659225643908748e-01,-5.600392524213488876e-01,3.260267085899037909e-01
2.068400000000000105e+01,-4.813778255662425586e-03,3.619468936180322838e-01,-5.568624043211816144e-01,3.334963526266386258e-01
2.069600000000000151e+01,8.936127321487801964e-03,3.605866366249832478e-01,-5.534909776580584362e-01,3.409006965870784445e-01
2.070799999999999841e+01,2.264901204987943006e-02,3.587827564877859587e-01,-5.499250377247184574e-01,3.482350119192236804e-01
2.071999999999999886e+01,3.631351707515109717e-02,3.565329011740931420e-01,-5.461646590748772123e-01,3.554944863911410624e-01
2.073199999999999932e+01,4.991807770520565596e-02,3.538347604065752994e-01,-5.422099268301627806e-01,3.626742112914168037e-01
2.074399999999999977e+01,6.345089919656848876e-02,3.506860658379459261e-01,-5.380609386522641202e-01,3.697691676349887380e-01
2.075600000000000023e+01,7.689993063426726894e-02,3.470845928612336095e-01,-5.337178073669396339e-01,3.767742113110130742e-01
2.076800000000000068e+01,9.025283680756848725e-02,3.430281642111942531e-01,-5.291806642018245244e-01,3.836840571160354263e-01
2.078000000000000114e+01,1.034969679734513703e-01,3.385146555170541194e-01,-5.244496625692044445e-01,3.904932616325332839e-01
2.079200000000000159e+01,1.166193273894191168e-01,3.335420029654211915e-01,-5.195249822883870605e-01,3.971962049442051557e-01
2.080399999999999849e+01,1.296065364885292670e-01,3.281082132262814199e-01,-5.144068341032980163e-01,4.037870712322494393e-01
2.081599999999999895e+01,1.424447975637515296e-01,3.222113757793649280e-01,-5.090954643142012737e-01,4.102598283778872146e-01
2.082799999999999940e+01,1.551198538296134632e-01,3.158496777517487697e-01,-5.035911593196580327e-01,4.166082068130024796e-01
2.083999999999999986e+01,1.676169467423601067e-01,3.090214213361311968e-01,-4.978942498706899755e-01,4.228256780183723973e-01
2.085200000000000031e+01,1.799207704919879025e-01,3.017250438000434465e-01,-4.920051148981349765e-01,4.289054332670089176e-01
2.086400000000000077e+01,1.920154236438767203e-01,2.939591400179024649e-01,-4.859241849156034077e-01,4.348403634375544446e-01
2.087600000000000122e+01,2.038843580196930683e-01,2.857224873608572024e-01,-4.796519452567887809e-01,4.406230409509799828e-01
2.088800000000000168e+01,2.155103250886756527e-01,2.770140726713735679e-01,-4.731889398032230187e-01,4.462457050603964026e-01
2.089999999999999858e+01,2.268753204180060101e-01,2.678331209485730335e-01,-4.665357764018580600e-01,4.517002517693217700e-01
2.091199999999999903e+01,2.379605271331234340e-01,2.581791253103070116e-01,-4.596931358218122599e-01,4.569782294689698765e-01
2.092399999999999949e+01,2.487462598886744369e-01,2.480518778382732603e-01,-4.526617867533153095e-01,4.620708408737582151e-01
2.093599999999999994e+01,2.592119115520016837e-01,2.374515011420915422e-01,-4.454426098305789283e-01,4.669689509446586229e-01
2.094800000000000040e+01,2.693359056131974238e-01,2.263784810177593698e-01,-4.380366337300448110e-01,4.716630992726588145e-01
2.096000000000000085e+01,2.790956581423780225e-01,2.148337015626495816e-01,-4.304450858286764658e-01,4.761435140507265240e-01
2.097200000000000131e+01,2.884675536860566436e-01,2.028184856568999717e-01,-4.226694585879721688e-01,4.804001236507174921e-01
2.098400000000000176e+01,2.974269394679811551e-01,1.903346458398835483e-01,-4.147115908674717799e-01,4.844225613844717060e-01
2.099599999999999866e+01,3.059481411729574329e-01,1.773845530893159439e-01,-4.065737611581832778e-01,4.882001596352856243e-01
2.100799999999999912e+01,3.140045010111162105e-01,1.639712332916563875e-01,-3.982587878703434114e-01,4.917219313007175074e-01
2.101999999999999957e+01,3.215684345399116850e-01,1.500985023210320013e-01,-3.897701309364565714e-01,4.949765390993541847e-01
2.103200000000000003e+01,3.286114973480946388e-01,1.357711494180909029e-01,-3.811119894714479206e-01,4.979522561198090891e-01
2.104400000000000048e+01,3.351044475687739443e-01,1.209951739902285356e-01,-3.722893919949284425e-01,5.006369232524850998e-01
2.105600000000000094e+01,3.410172874624252670e-01,1.057780729805865294e-01,-3.633082782491887652e-01,5.030179102466535435e-01
2.106800000000000139e+01,3.463192692549074136e-01,9.012916608266001439e-02,-3.541755741887196995e-01,5.050820868928097562e-01
2.107999999999999829e+01,3.509788581177786804e-01,7.405993740146744886e-02,-3.448992635927612960e-01,5.068158095077553993e-01
2.109199999999999875e+01,3.549636574361221819e-01,5.758436830333434064e-02,-3.354884605841503831e-01,5.082049260500351995e-01
2.110399999999999920e+01,3.582403147115564290e-01,4.071923949516877833e-02,-3.259534871273841450e-01,5.092348014058741823e-01
2.111599999999999966e+01,3.607744359772336873e-01,2.348439031595724383e-02,-3.163059586009746571e-01,5.098903630800802889e-01
2.112800000000000011e+01,3.625305390882732071e-01,5.902936346040901783e-03,-3.065588791817674963e-01,5.101561668721986686e-01
2.114000000000000057e+01,3.634720713190374708e-01,-1.199854203879197750e-02,-2.967267473790966559e-01,5.100164820625596729e-01
2.115200000000000102e+01,3.635615069485143569e-01,-3.018982136752627193e-02,-2.868256708312855174e-01,5.094553959985228531e-01
2.116400000000000148e+01,3.627605299435989750e-01,-4.863684855315289490e-02,-2.768734885043413474e-01,5.084569385467608837e-01
2.117599999999999838e+01,3.610302988234084798e-01,-6.730153310948773504e-02,-2.668898976950840329e-01,5.070052274839602635e-01
2.118799999999999883e+01,3.583317868338529721e-01,-8.614151292436666996e-02,-2.568965826674254882e-01,5.050846364115255671e-01
2.119999999999999929e+01,3.546261903697166540e-01,-1.051098961669279380e-01,-2.469173412589154570e-01,5.026799871296337985e-01
2.121199999999999974e+01,3.498754007721160408e-01,-1.241549880453032412e-01,-2.369782053153907109e-01,4.997767685602933496e-01
2.122400000000000020e+01,3.440425376404238622e-01,-1.432200152288526651e-01,-2.271075502972754456e-01,4.963613842568677659e-01
2.123600000000000065e+01,3.370925444392625092e-01,-1.622428631381509778e-01,-2.173361888299145117e-01,4.924214302755230976e-01
2.124800000000000111e+01,3.289928487924386191e-01,-1.811558425987583598e-01,-2.076974423418542770e-01,4.879460047073404527e-01
2.126000000000000156e+01,3.197140902166995535e-01,-1.998855031318657050e-01,-1.982271842682164498e-01,4.829260494707012241e-01
2.127199999999999847e+01,3.092309171962711600e-01,-2.183525107986869496e-01,-1.889638476256334521e-01,4.773547240285306303e-01
2.128399999999999892e+01,2.975228535777456607e-01,-2.364716091952180355e-01,-1.799483891393014456e-01,4.712278095104795450e-01
2.129599999999999937e+01,2.845752314276280281e-01,-2.541516829004278333e-01,-1.712242015832142195e-01,4.645441402739239889e-01
2.130799999999999983e+01,2.703801838699159688e-01,-2.712959432847060759e-01,-1.628369656552072775e-01,4.573060582251642359e-01
2.132000000000000028e+01,2.549376871123199551e-01,-2.878022568817961147e-01,-1.548344326341553057e-01,4.495198832517445231e-01
2.133200000000000074e+01,2.382566359737391670e-01,-3.035636362726121251e-01,-1.472661293508369662e-01,4.411963909151669916e-01
2.134400000000000119e+01,2.203559318591785388e-01,-3.184689123622115314e-01,-1.401829777453684756e-01,4.323512861721822143e-01
2.135600000000000165e+01,2.012655564512802753e-01,-3.324036047921028469e-01,-1.336368225802015697e-01,4.230056594141154980e-01
2.136799999999999855e+01,1.810275986233444434e-01,-3.452510037794219722e-01,-1.276798628167164495e-01,4.131864086537138103e-01
2.137999999999999901e+01,1.596971965265761295e-01,-3.568934717134851775e-01,-1.223639848134623481e-01,4.029266094007995513e-01
2.139199999999999946e+01,1.373433518455016988e-01,-3.672139662369704460e-01,-1.177399988999757036e-01,3.922658118404806493e-01
2.140399999999999991e+01,1.140495693049423803e-01,-3.760977782583583839e-01,-1.138567850089598071e-01,3.812502435796438216e-01
2.141600000000000037e+01,8.991427216377571863e-02,-3.834344684765054745e-01,-1.107603578367124947e-01,3.699328956979683891e-01
2.142800000000000082e+01,6.505094418206794349e-02,-3.891199747981901602e-01,-1.084928672973423242e-01,3.583734703694942403e-01
2.144000000000000128e+01,3.958795091710970437e-02,-3.930588509246294993e-01,-1.070915556079883868e-01,3.466381701310847219e-01
2.145199999999999818e+01,1.366799862750153749e-02,-3.951665839926332136e-01,-1.065876978733162894e-01,3.347993121368234015e-01
2.146399999999999864e+01,-1.255280216641039594e-02,-3.953719272780598648e-01,-1.070055581353368535e-01,3.229347555447886764e-01
2.147599999999999909e+01,-3.890628922971003240e-02,-3.936191735450509932e-01,-1.083613970714372432e-01,3.111271365163226221e-01
2.148799999999999955e+01,-6.521402263240781705e-02,-3.898702866783527732e-01,-1.106625703886086054e-01,2.994629130121385652e-01
2.150000000000000000e+01,-9.128946752446798207e-02,-3.841068047846839528e-01,-1.139067580265183399e-01,2.880312303370254345e-01
2.151200000000000045e+01,-1.169405530560856249e-01,-3.763314278932152757e-01,-1.180813631714855705e-01,2.769226277541921855e-01
2.152400000000000091e+01,-1.419725543082856478e-01,-3.665692083898990372e-01,-1.231631165521320653e-01,2.662276158666411763e-01
2.153600000000000136e+01,-1.661912243678155543e-01,-3.548682726992441472e-01,-1.291179154692346231e-01,2.560351631570382813e-01
2.154800000000000182e+01,-1.894060862946041202e-01,-3.413000183533934639e-01,-1.359009186562831206e-01,2.464311373650777126e-01
2.155999999999999872e+01,-2.114337812191700861e-01,-3.259587508432922887e-01,-1.434569077530135073e-01,2.374967525770045607e-01
2.157199999999999918e+01,-2.321013605088647902e-01,-3.089607484279059402e-01,-1.517209144985882663e-01,2.293070754386594690e-01
2.158399999999999963e+01,-2.512494078363293748e-01,-2.904427688673347219e-01,-1.606191004860991201e-01,2.219296434064796375e-01
2.159600000000000009e+01,-2.687348815586297346e-01,-2.705600380411266603e-01,-1.700698643437744961e-01,2.154232442945348269e-01
2.160800000000000054e+01,-2.844335789798474456e-01,-2.494837847034963307e-01,-1.799851404161244561e-01,2.098368997134317793e-01
2.162000000000000099e+01,-2.982421411402319533e-01,-2.273984063928881361e-01,-1.902718442284022371e-01,2.052090857561600368e-01
2.163200000000000145e+01,-3.100795385315363029e-01,-2.044983672241210970e-01,-2.008334138807695013e-01,2.015672131302947978e-01
2.164399999999999835e+01,-3.198880029532197855e-01,-1.809849378686776977e-01,-2.115713934483093861e-01,1.989273766951384081e-01
2.165599999999999881e+01,-3.276333967373669109e-01,-1.570628909526339545e-01,-2.223870045964737863e-01,1.972943719433118137e-01
2.166799999999999926e+01,-3.333050358887988396e-01,-1.329372614468389280e-01,-2.331826558134608984e-01,1.966619642565204940e-01
2.167999999999999972e+01,-3.369150065815718076e-01,-1.088102720201648416e-01,-2.438633445138653766e-01,1.970133865428751463e-01
2.169200000000000017e+01,-3.384970335198135283e-01,-8.487850885978527604e-02,-2.543379151883384814e-01,1.983220327263729432e-01
2.170400000000000063e+01,-3.381049729435196549e-01,-6.133041552437059479e-02,-2.645201460499085333e-01,2.005523088818071953e-01
2.171600000000000108e+01,-3.358110120584480995e-01,-3.834415252058678836e-02,-2.743296465085723335e-01,2.036606007269386731e-01
2.172800000000000153e+01,-3.317036603889734203e-01,-1.608584999036723889e-02,-2.836925575804858934e-01,2.075963156120273767e-01
2.173999999999999844e+01,-3.258856174012252915e-01,5.291738485580952875e-03,-2.925420563955654085e-01,2.123029588139811186e-01
2.175199999999999889e+01,-3.184715954421187822e-01,2.565019033754782282e-02,-3.008186738385820180e-01,2.177192074451523018e-01
2.176399999999999935e+01,-3.095861685074178249e-01,4.486600067903364492e-02,-3.084704407363974554e-01,2.237799501474598274e-01
2.177599999999999980e+01,-2.993617065897181684e-01,6.283083655769425291e-02,-3.154528827409290859e-01,2.304172664641419843e-01
2.178800000000000026e+01,-2.879364433467987427e-01,7.945150218406119014e-02,-3.217288871497746006e-01,2.375613258945930562e-01
2.180000000000000071e+01,-2.754527124538495575e-01,9.464966336214766796e-02,-3.272684664658027653e-01,2.451411927350561071e-01
2.181200000000000117e+01,-2.620553759898786028e-01,1.083613812712393570e-01,-3.320484437163201963e-01,2.530855285649609709e-01
2.182400000000000162e+01,-2.478904571109833144e-01,1.205365052164956152e-01,-3.360520836728162486e-01,2.613231894222425855e-01
2.183599999999999852e+01,-2.331039794515769592e-01,1.311379714801488294e-01,-3.392686923923944331e-01,2.697837191770022791e-01
2.184799999999999898e+01,-2.178410073719386220e-01,1.401410514739562796e-01,-3.416932051932881076e-01,2.783977442967055516e-01
2.185999999999999943e+01,-2.022448743977301455e-01,1.475325874902595202e-01,-3.433257805056687539e-01,2.870972780977444905e-01
