Frequency, Re(SMin1Min1), Im(SMin1Min1), Re(SMax1Min1), Im(SMax1Min1)
2.000000000000000000e+01,-5.234866694189469483e-01,-1.901859203623756100e-01,-4.279742243847248218e-01,-6.160049543349946366e-02
2.001200000000000045e+01,-5.241831120414649492e-01,-1.748956107698220463e-01,-4.344028060786145340e-01,-5.800998955321656769e-02
2.002400000000000091e+01,-5.244642584311163258e-01,-1.595996368304551383e-01,-4.407484523863609560e-01,-5.423173373921906515e-02
2.003600000000000136e+01,-5.243291302925987551e-01,-1.443109579432700906e-01,-4.470053104425714685e-01,-5.026878674628545984e-02
2.004799999999999827e+01,-5.237772132042085582e-01,-1.290425762365474682e-01,-4.531677010969896724e-01,-4.612440427012631794e-02
2.005999999999999872e+01,-5.228084564620384400e-01,-1.138075164011072421e-01,-4.592301263480418339e-01,-4.180202614725240379e-02
2.007199999999999918e+01,-5.214232718083610107e-01,-9.861880571127122630e-02,-4.651872757673640724e-01,-3.730526322371485737e-02
2.008399999999999963e+01,-5.196225310654315477e-01,-8.348945430839571635e-02,-4.710340319023344491e-01,-3.263788397041889056e-02
2.009600000000000009e+01,-5.174075627018579482e-01,-6.843243581919591922e-02,-4.767654746468734661e-01,-2.780380092316437832e-02
2.010800000000000054e+01,-5.147801473640586378e-01,-5.346066837953834111e-02,-4.823768845776162939e-01,-2.280705702513508362e-02
2.012000000000000099e+01,-5.117425124101164791e-01,-3.858699613005103085e-02,-4.878637452576868316e-01,-1.765181194833436579e-02
2.013200000000000145e+01,-5.082973254878520031e-01,-2.382417124815055728e-02,-4.932217445160828606e-01,-1.234232846912186078e-02
2.014399999999999835e+01,-5.044476872046560478e-01,-9.184836575796561514e-03,-4.984467747121230086e-01,-6.882958971680809383e-03
2.015599999999999881e+01,-5.001971229385920870e-01,5.318491099783282175e-03,-5.035349320064304024e-01,-1.278132151304238202e-03
2.016799999999999926e+01,-4.955495738460153343e-01,1.967343706136294793e-02,-5.084825146519089678e-01,4.467660012508112635e-03
2.017999999999999972e+01,-4.905093871233337510e-01,3.386778392511116675e-02,-5.132860203361842011e-01,1.034987494422408456e-02
2.019200000000000017e+01,-4.850813055830709430e-01,4.788948610905555126e-02,-5.179421425975411220e-01,1.636393175673392722e-02
2.020400000000000063e+01,-4.792704566082762740e-01,6.172668346898199654e-02,-5.224477663497221203e-01,2.250522306605717490e-02
2.021600000000000108e+01,-4.730823405502278534e-01,7.536771406870702850e-02,-5.267999625459841573e-01,2.876912627449274354e-02
2.022800000000000153e+01,-4.665228186361370932e-01,8.880112605636053535e-02,-5.309959820237297734e-01,3.515101426190713613e-02
2.023999999999999844e+01,-4.595981004560404926e-01,1.020156886241332383e-01,-5.350332485657257608e-01,4.164626542267838710e-02
2.025199999999999889e+01,-4.523147310976608493e-01,1.150004020331864690e-01,-5.389093512246462270e-01,4.825027299308683182e-02
2.026399999999999935e+01,-4.446795779991288278e-01,1.277445066912408222e-01,-5.426220359553228789e-01,5.495845360917789302e-02
2.027599999999999980e+01,-4.366998175893033185e-01,1.402374912748933222e-01,-5.461691966050219449e-01,6.176625503994300631e-02
2.028800000000000026e+01,-4.283829217863094896e-01,1.524690998933333208e-01,-5.495488653159897874e-01,6.866916303948020217e-02
2.030000000000000071e+01,-4.197366444221212189e-01,1.644293382954222504e-01,-5.527592023973283419e-01,7.566270726239508748e-02
2.031200000000000117e+01,-4.107690076627099618e-01,1.761084791270282335e-01,-5.557984857299038683e-01,8.274246618882487303e-02
2.032400000000000162e+01,-4.014882884903891447e-01,1.874970662477635497e-01,-5.586650997724346146e-01,8.990407100500909243e-02
2.033599999999999852e+01,-3.919030053138637393e-01,1.985859181243754268e-01,-5.613575242423868294e-01,9.714320838727213969e-02
2.034799999999999898e+01,-3.820219047709022542e-01,2.093661303177728472e-01,-5.638743225553171090e-01,1.044556221382417077e-01
2.035999999999999943e+01,-3.718539487848755987e-01,2.198290770876751010e-01,-5.662141301110895641e-01,1.118371136276675171e-01
2.037199999999999989e+01,-3.614083019360728177e-01,2.299664121409206452e-01,-5.683756425261842216e-01,1.192835409937160474e-01
2.038400000000000034e+01,-3.506943192055566594e-01,2.397700685531318210e-01,-5.703576039210355164e-01,1.267908170626467768e-01
2.039600000000000080e+01,-3.397215341472317740e-01,2.492322578966656155e-01,-5.721587953804311288e-01,1.343549059572190230e-01
2.040800000000000125e+01,-3.284996475416836481e-01,2.583454686103129894e-01,-5.737780237175806874e-01,1.419718183652881882e-01
2.042000000000000171e+01,-3.170385165824328166e-01,2.671024636493590787e-01,-5.752141106823338568e-01,1.496376054574789782e-01
2.043199999999999861e+01,-3.053481446432392277e-01,2.754962774563819994e-01,-5.764658827666294671e-01,1.573483514520528648e-01
2.044399999999999906e+01,-2.934386716725057576e-01,2.835202122957556359e-01,-5.775321617678831343e-01,1.651001648432345037e-01
2.045599999999999952e+01,-2.813203652580155700e-01,2.911678339969079876e-01,-5.784117562842140403e-01,1.728891683292278214e-01
2.046799999999999997e+01,-2.690036124037855081e-01,2.984329671524308947e-01,-5.791034543181278194e-01,1.807114874983560548e-01
2.048000000000000043e+01,-2.564989120572647718e-01,3.053096898200137188e-01,-5.796060171732646538e-01,1.885632383585948701e-01
2.049200000000000088e+01,-2.438168684241127648e-01,3.117923277771228463e-01,-5.799181748268663616e-01,1.964405138258352168e-01
2.050400000000000134e+01,-2.309681851048556445e-01,3.178754483801657371e-01,-5.800386229574742147e-01,2.043393693175880876e-01
2.051599999999999824e+01,-2.179636600863739948e-01,3.235538540799163809e-01,-5.799660217976376764e-01,2.122558076342626054e-01
2.052799999999999869e+01,-2.048141816188853437e-01,3.288225756471687133e-01,-5.796989969631252126e-01,2.201857633448284501e-01
2.053999999999999915e+01,-1.915307250080188484e-01,3.336768651628067572e-01,-5.792361423869475390e-01,2.281250869305857243e-01
2.055199999999999960e+01,-1.781243503496155178e-01,3.381121888284802091e-01,-5.785760254532783531e-01,2.360695289731151447e-01
2.056400000000000006e+01,-1.646062012340683001e-01,3.421242196545949410e-01,-5.777171943842475121e-01,2.440147247039470002e-01
2.057600000000000051e+01,-1.509875044458360294e-01,3.457088300840250872e-01,-5.766581878830882024e-01,2.519561792572804770e-01
2.058800000000000097e+01,-1.372795706828404960e-01,3.488620846111077367e-01,-5.753975469783523256e-01,2.598892539841691218e-01
2.060000000000000142e+01,-1.234937963200255923e-01,3.515802324570899695e-01,-5.739338289488062905e-01,2.678091541924462193e-01
2.061199999999999832e+01,-1.096416662407804915e-01,3.538597003649898154e-01,-5.722656231382068359e-01,2.757109186700911763e-01
2.062399999999999878e+01,-9.573475775980221092e-02,3.556970855787827124e-01,-5.703915683961918726e-01,2.835894113292903307e-01
2.063599999999999923e+01,-8.178474566091964437e-02,3.570891490742373886e-01,-5.683103718089992373e-01,2.914393152701706402e-01
2.064799999999999969e+01,-6.780340837352379080e-02,3.580328091113339495e-01,-5.660208283151103581e-01,2.992551295104847187e-01
2.066000000000000014e+01,-5.380263531155395074e-02,3.585251351814788823e-01,-5.635218407417394992e-01,3.070311685558253512e-01
2.067200000000000060e+01,-3.979443539948605835e-02,3.585633424263815483e-01,-5.608124397497162850e-01,3.147615648990644277e-01
2.068400000000000105e+01,-2.579094681026462138e-02,3.581447866094989996e-01,-5.578918031441283398e-01,3.224402744379704644e-01
2.069600000000000151e+01,-1.180444794071113142e-02,3.572669597262511654e-01,-5.547592739970170772e-01,3.300610846915624785e-01
2.070799999999999841e+01,2.152630349412121193e-03,3.559274863444969461e-01,-5.514143770433571623e-01,3.376176255789481440e-01
2.071999999999999886e+01,1.606769120800763395e-02,3.541241207735288943e-01,-5.478568328453692349e-01,3.451033824136941486e-01
2.073199999999999932e+01,2.992795694336340337e-02,3.518547451671179549e-01,-5.440865692884199190e-01,3.525117106536811429e-01
2.074399999999999977e+01,4.372045283196847321e-02,3.491173686746205651e-01,-5.401037300552431475e-01,3.598358518540071826e-01
2.075600000000000023e+01,5.743198955348075702e-02,3.459101277642396277e-01,-5.359086798370739091e-01,3.670689501900996632e-01
2.076800000000000068e+01,7.104914422605586310e-02,3.422312878523550705e-01,-5.315020061652400152e-01,3.742040688628440748e-01
2.078000000000000114e+01,8.455824001571465853e-02,3.380792463869007336e-01,-5.268845178857144429e-01,3.812342056688026726e-01
2.079200000000000159e+01,9.794532429559950348e-02,3.334525375443981310e-01,-5.220572404425841695e-01,3.881523070189499824e-01
2.080399999999999849e+01,1.111961453331223731e-01,3.283498387182348655e-01,-5.170214082792337074e-01,3.949512797206480297e-01
2.081599999999999895e+01,1.242961274873295163e-01,3.227699789910091210e-01,-5.117784547985049226e-01,4.016239998947513934e-01
2.082799999999999940e+01,1.372303449034948941e-01,3.167119498044387305e-01,-5.063300004452438996e-01,4.081633184847864859e-01
2.083999999999999986e+01,1.499834936993762191e-01,3.101749180610952061e-01,-5.006778395712967455e-01,4.145620629230578058e-01
2.085200000000000031e+01,1.625398626465973939e-01,3.031582419165111397e-01,-4.948239268219631337e-01,4.208130346381558917e-01
2.086400000000000077e+01,1.748833023623483085e-01,2.956614895451850633e-01,-4.887703638320802790e-01,4.269090022209252044e-01
2.087600000000000122e+01,1.869971930414222605e-01,2.876844611943067953e-01,-4.825193870447138100e-01,4.328426902040914404e-01
2.088800000000000168e+01,1.988644107772913061e-01,2.792272148681975708e-01,-4.760733574654599787e-01,4.386067635389457320e-01
2.089999999999999858e+01,2.104672925439755038e-01,2.702900960216669257e-01,-4.694347531404207685e-01,4.441938079843220644e-01
2.091199999999999903e+01,2.217875999382646068e-01,2.608737716765116010e-01,-4.626061651079830250e-01,4.495963067312589434e-01
2.092399999999999949e+01,2.328064818169789107e-01,2.509792694136328550e-01,-4.555902975129003107e-01,4.548066136924159841e-01
2.093599999999999994e+01,2.435044360043760181e-01,2.406080217357626505e-01,-4.483899725116141100e-01,4.598169239645951700e-01
2.094800000000000040e+01,2.538612702954439748e-01,2.297619163380205665e-01,-4.410081405224617335e-01,4.646192420440947712e-01
2.096000000000000085e+01,2.638560630401184937e-01,2.184433528692252269e-01,-4.334478963063508328e-01,4.692053484273689401e-01
2.097200000000000131e+01,2.734671236637763458e-01,2.066553068126292247e-01,-4.257125012938254849e-01,4.735667652710810471e-01
2.098400000000000176e+01,2.826719535630863867e-01,1.944014011608390380e-01,-4.178054125135093333e-01,4.776947218181611388e-01
2.099599999999999866e+01,2.914472079139514005e-01,1.816859866050069550e-01,-4.097303184216796179e-01,4.815801203232723537e-01
2.100799999999999912e+01,2.997686590432696585e-01,1.685142309998864663e-01,-4.014911818857002657e-01,4.852135032363750766e-01
2.101999999999999957e+01,3.076111621484999281e-01,1.548922189049836695e-01,-3.930922905371171949e-01,4.885850224302565326e-01
2.103200000000000003e+01,3.149486243037315503e-01,1.408270620317057797e-01,-3.845383146758475368e-01,4.916844112917124199e-01
2.104400000000000048e+01,3.217539778671367201e-01,1.263270214463446395e-01,-3.758343728798065331e-01,4.945009605387894469e-01
2.105600000000000094e+01,3.279991596070472304e-01,1.114016423845002046e-01,-3.669861054472434159e-01,4.970234986820253331e-01
2.106800000000000139e+01,3.336550970927034121e-01,9.606190251789230306e-02,-3.579997557675548836e-01,4.992403781177530697e-01
2.107999999999999829e+01,3.386917041542850670e-01,8.032037447572869249e-02,-3.488822596795714825e-01,5.011394679282543674e-01
2.109199999999999875e+01,3.430778875050159438e-01,6.419140335059629610e-02,-3.396413428246682353e-01,5.027081545675493590e-01
2.110399999999999920e+01,3.467815669371674403e-01,4.769129980636858945e-02,-3.302856259331473088e-01,5.039333517331898715e-01
2.111599999999999966e+01,3.497697118535832983e-01,3.083854924211702417e-02,-3.208247378874549693e-01,5.048015208625924455e-01
2.112800000000000011e+01,3.520083972736920974e-01,1.365403724035246444e-02,-3.112694362796921133e-01,5.052987038444934909e-01
2.114000000000000057e+01,3.534628828552463520e-01,-3.838708772677013655e-03,-3.016317350152658006e-01,5.054105696999979802e-01
2.115200000000000102e+01,3.540977188926916486e-01,-2.161326211744584239e-02,-2.919250383021883555e-01,5.051224771567006666e-01
2.116400000000000148e+01,3.538768836808329210e-01,-3.964002466116028217e-02,-2.821642800983192867e-01,5.044195552078072353e-01
2.117599999999999838e+01,3.527639570541395986e-01,-5.788594140464062981e-02,-2.723660677591189794e-01,5.032868039063475019e-01
2.118799999999999883e+01,3.507223353086552087e-01,-7.631420419214780815e-02,-2.625488282285822761e-01,5.017092177806774522e-01
2.119999999999999929e+01,3.477154930599710703e-01,-9.488394779595012152e-02,-2.527329546392821369e-01,4.996719343568286065e-01
2.121199999999999974e+01,3.437072978548011970e-01,-1.135499427166658942e-01,-2.429409506291686505e-01,4.971604103174523948e-01
2.122400000000000020e+01,3.386623834953750856e-01,-1.322622903146840057e-01,-2.331975690396081713e-01,4.941606277942970915e-01
2.123600000000000065e+01,3.325465880055585299e-01,-1.509661273555437666e-01,-2.235299409331217568e-01,4.906593331554092163e-01
2.124800000000000111e+01,3.253274619072296647e-01,-1.696013487117767615e-01,-2.139676900657525860e-01,4.866443103796221914e-01
2.126000000000000156e+01,3.169748519166770695e-01,-1.881023588030930616e-01,-2.045430270810114082e-01,4.821046906768309825e-01
2.127199999999999847e+01,3.074615642377836466e-01,-2.063978643485546716e-01,-1.952908167821024443e-01,4.770312993760438824e-01
2.128399999999999892e+01,2.967641102377340800e-01,-2.244107231002378522e-01,-1.862486109178031202e-01,4.714170402290473461e-01
2.129599999999999937e+01,2.848635353573624740e-01,-2.420578653550851944e-01,-1.774566380317690595e-01,4.652573161280549874e-01
2.130799999999999983e+01,2.717463295472452578e-01,-2.592503070970189616e-01,-1.689577411332774948e-01,4.585504837818419333e-01
2.132000000000000028e+01,2.574054142603903195e-01,-2.758932754675345600e-01,-1.607972533278277660e-01,4.512983381123628623e-01
2.133200000000000074e+01,2.418411970191758353e-01,-2.918864687243226674e-01,-1.530228011882359407e-01,4.435066200164440864e-01
2.134400000000000119e+01,2.250626797903954313e-01,-3.071244737107217126e-01,-1.456840256614133633e-01,4.351855386966269612e-01
2.135600000000000165e+01,2.070886018763551939e-01,-3.214973638745257101e-01,-1.388322108106071762e-01,4.263502970432364036e-01
2.136799999999999855e+01,1.879485918607068096e-01,-3.348914997659265258e-01,-1.325198118139558900e-01,4.170216056236685787e-01
2.137999999999999901e+01,1.676842965135467434e-01,-3.471905514205242405e-01,-1.267998755014519974e-01,4.072261678230154613e-01
2.139199999999999946e+01,1.463504477439554474e-01,-3.582767578129819608e-01,-1.217253494194124597e-01,3.969971157519781579e-01
2.140399999999999991e+01,1.240158220804754990e-01,-3.680324324076088560e-01,-1.173482790411636001e-01,3.863743739082973749e-01
2.141600000000000037e+01,1.007640412696791804e-01,-3.763417155685120918e-01,-1.137188973176113393e-01,3.754049255125142537e-01
2.142800000000000082e+01,7.669415802147475092e-02,-3.830925641835246087e-01,-1.108846162353437498e-01,3.641429552363866229e-01
2.144000000000000128e+01,5.192096839102040839e-02,-3.881789564311575735e-01,-1.088889362838983133e-01,3.526498420218805441e-01
2.145199999999999818e+01,2.657499249867761176e-02,-3.915032755240114848e-01,-1.077702964812610464e-01,3.409939771598869962e-01
2.146399999999999864e+01,8.020689468292818269e-04,-3.929788210909018753e-01,-1.075608945076970135e-01,3.292503860254452630e-01
2.147599999999999909e+01,-2.523748402499268254e-02,-3.925323814731399574e-01,-1.082855130795832843e-01,3.175001370286610891e-01
2.148799999999999955e+01,-5.137017553612650139e-02,-3.901067857168665776e-01,-1.099603943942607243e-01,3.058295284840135686e-01
2.150000000000000000e+01,-7.741113560186922704e-02,-3.856633417470032299e-01,-1.125922086769814978e-01,2.943290531002537569e-01
2.151200000000000045e+01,-1.031663930386384487e-01,-3.791840585131726060e-01,-1.161771649474022533e-01,2.830921503200887202e-01
2.152400000000000091e+01,-1.284356117723467194e-01,-3.706735461700413903e-01,-1.207003115538486521e-01,2.722137682533047331e-01
2.153600000000000136e+01,-1.530152338809673551e-01,-3.601604907572352188e-01,-1.261350704076595053e-01,2.617887687107164352e-01
2.154800000000000182e+01,-1.767019518307966219e-01,-3.476986091566537374e-01,-1.324430420217541648e-01,2.519102199705482992e-01
2.155999999999999872e+01,-1.992964083771925909e-01,-3.333670065593994924e-01,-1.395741085374525015e-01,2.426676314295969639e-01
2.157199999999999918e+01,-2.206070026614500579e-01,-3.172698818328775761e-01,-1.474668493469262209e-01,2.341451912700584503e-01
2.158399999999999963e+01,-2.404536671887920474e-01,-2.995355548864732653e-01,-1.560492694317458240e-01,2.264200719095941783e-01
2.159600000000000009e+01,-2.586714742786261900e-01,-2.803148225610377908e-01,-1.652398251426153153e-01,2.195608677438588840e-01
2.160800000000000054e+01,-2.751139332809257598e-01,-2.597786833596263945e-01,-1.749487170108180445e-01,2.136262253214804285e-01
2.162000000000000099e+01,-2.896558515977233350e-01,-2.381155038390329048e-01,-1.850794055176488706e-01,2.086637177787454833e-01
2.163200000000000145e+01,-3.021956527105885693e-01,-2.155277280413357699e-01,-1.955302946698629085e-01,2.047090036601885987e-01
2.164399999999999835e+01,-3.126570715275011070e-01,-1.922282536147729981e-01,-2.061965206247798055e-01,2.017852960488955016e-01
2.165599999999999881e+01,-3.209901792783378949e-01,-1.684366124922357100e-01,-2.169717790385420619e-01,1.999031523528078391e-01
2.166799999999999926e+01,-3.271717243154059762e-01,-1.443750991900994429e-01,-2.277501254455761293e-01,1.990605793716170857e-01
2.167999999999999972e+01,-3.312048087955424269e-01,-1.202649858674941091e-01,-2.384276875927206774e-01,1.992434336037129661e-01
2.169200000000000017e+01,-3.331179517801341472e-01,-9.632295100770517371e-02,-2.489042366721221367e-01,2.004260841817804284e-01
2.170400000000000063e+01,-3.329636146889737303e-01,-7.275782943146497095e-02,-2.590845749833417533e-01,2.025722961226671670e-01
2.171600000000000108e+01,-3.308162838162597152e-01,-4.976776730545610927e-02,-2.688797097152154647e-01,2.056362851970063577e-01
2.172800000000000153e+01,-3.267702160283342261e-01,-2.753783909255449677e-02,-2.782077952469690363e-01,2.095638927824249598e-01
2.173999999999999844e+01,-3.209369578037017390e-01,-6.238156203092372690e-03,-2.869948386770155291e-01,2.142938293744312273e-01
2.175199999999999889e+01,-3.134427450641782409e-01,1.397752859163362699e-02,-2.951751744086291707e-01,2.197589385562591091e-01
2.176399999999999935e+01,-3.044258828753894641e-01,3.297273957760075286e-02,-3.026917229785801577e-01,2.258874385766343473e-01
2.177599999999999980e+01,-2.940341914459944084e-01,5.062875648852034616e-02,-3.094960565655519580e-01,2.326041055731746521e-01
2.178800000000000026e+01,-2.824225894144826721e-01,6.684470389080550412e-02,-3.155482986388103428e-01,2.398313702312705742e-01
2.180000000000000071e+01,-2.697508686118429977e-01,8.153731170336304956e-02,-3.208168880738674900e-01,2.474903076648619915e-01
2.181200000000000117e+01,-2.561816975830320531e-01,9.464041162747065250e-02,-3.252782389845315647e-01,2.555015080330871879e-01
2.182400000000000162e+01,-2.418788751461289355e-01,1.061042349621782871e-01,-3.289163268068335810e-01,2.637858224779209282e-01
2.183599999999999852e+01,-2.270058408895118951e-01,1.158945747533108722e-01,-3.317222291730808070e-01,2.722649851251912057e-01
2.184799999999999898e+01,-2.117244372012767606e-01,1.239918702391348132e-01,-3.336936471910922353e-01,2.808621169994960365e-01
2.185999999999999943e+01,-1.961939073934717837e-01,1.303902648585484880e-01,-3.348344292253038201e-01,2.895021217273285874e-01
