Frequency, Re(SMin1Min1), Im(SMin1Min1), Re(SMax1Min1), Im(SMax1Min1)
2.000000000000000000e+01,-4.622605742679684049e-01,-4.442113769472543772e-01,-2.931229591335219320e-01,-7.423993275440189665e-02
2.001200000000000045e+01,-4.696276737267349177e-01,-4.306320570833502837e-01,-2.998343476500635041e-01,-7.414177260479198894e-02
2.002400000000000091e+01,-4.766513445181215780e-01,-4.168586729250495782e-01,-3.065621783966314684e-01,-7.384826645654761490e-02
2.003600000000000136e+01,-4.833243028450926460e-01,-4.029009659677305066e-01,-3.133005058062064419e-01,-7.335976620910031332e-02
2.004799999999999827e+01,-4.896395853430851042e-01,-3.887689769853586719e-01,-3.200435127743544439e-01,-7.267676574160765457e-02
2.005999999999999872e+01,-4.955905626268404807e-01,-3.744730325055629638e-01,-3.267855041843129027e-01,-7.179988712163393183e-02
2.007199999999999918e+01,-5.011709520880375246e-01,-3.600237305684629296e-01,-3.335208996781796054e-01,-7.072986886201040879e-02
2.008399999999999963e+01,-5.063748298966762595e-01,-3.454319258199497478e-01,-3.402442259879789321e-01,-6.946755614852223593e-02
2.009600000000000009e+01,-5.111966421617569756e-01,-3.307087139933312381e-01,-3.469501091031020334e-01,-6.801389292643846007e-02
2.010800000000000054e+01,-5.156312152119799652e-01,-3.158654158365061804e-01,-3.536332665146290632e-01,-6.636991570742353796e-02
2.012000000000000099e+01,-5.196737649607108267e-01,-3.009135605456431106e-01,-3.602884997366069819e-01,-6.453674894065671019e-02
2.013200000000000145e+01,-5.233199053240992216e-01,-2.858648687676972333e-01,-3.669106872707554867e-01,-6.251560177794095174e-02
2.014399999999999835e+01,-5.265656556663108612e-01,-2.707312352376218256e-01,-3.734947781426459779e-01,-6.030776605897247844e-02
2.015599999999999881e+01,-5.294074472500668316e-01,-2.555247111171148888e-01,-3.800357861085185140e-01,-5.791461533955072349e-02
2.016799999999999926e+01,-5.318421286768996170e-01,-2.402574861038592746e-01,-3.865287845984808901e-01,-5.533760479030696428e-02
2.017999999999999972e+01,-5.338669703052089099e-01,-2.249418703809739906e-01,-3.929689024385851770e-01,-5.257827179861288003e-02
2.019200000000000017e+01,-5.354796676404648403e-01,-2.095902764767207660e-01,-3.993513203688870417e-01,-4.963823711667741945e-02
2.020400000000000063e+01,-5.366783436976837462e-01,-1.942152011058736472e-01,-4.056712683549218990e-01,-4.651920640862824280e-02
2.021600000000000108e+01,-5.374615503394299942e-01,-1.788292070623325181e-01,-4.119240236735878247e-01,-4.322297206277556786e-02
2.022800000000000153e+01,-5.378282686002847646e-01,-1.634449052334559782e-01,-4.181049097394030079e-01,-3.975141514733230436e-02
2.023999999999999844e+01,-5.377779080125552058e-01,-1.480749368049602555e-01,-4.242092956261725445e-01,-3.610650740293539634e-02
2.025199999999999889e+01,-5.373103049531183784e-01,-1.327319557228278935e-01,-4.302325962305363349e-01,-3.229031317744503193e-02
2.026399999999999935e+01,-5.364257200362700928e-01,-1.174286114798048369e-01,-4.361702730163619091e-01,-2.830499122327930633e-02
2.027599999999999980e+01,-5.351248345825098118e-01,-1.021775322877496173e-01,-4.420178352753518225e-01,-2.415279628977267876e-02
2.028800000000000026e+01,-5.334087461973533451e-01,-8.699130869866203430e-02,-4.477708418355635933e-01,-1.983608045572236508e-02
2.030000000000000071e+01,-5.312789634982646447e-01,-7.188247773159836540e-02,-4.534249031481972780e-01,-1.535729415881290083e-02
2.031200000000000117e+01,-5.287374000325312240e-01,-5.686350756110405275e-02,-4.589756836839632426e-01,-1.071898689048786726e-02
2.032400000000000162e+01,-5.257863674323755010e-01,-4.194678281894145128e-02,-4.644189045699014251e-01,-5.923807532922457583e-03
2.033599999999999852e+01,-5.224285678563096447e-01,-2.714459055727161396e-02,-4.697503464004612606e-01,-9.745043260712938325e-04
2.034799999999999898e+01,-5.186670857705154569e-01,-1.246910691784941690e-02,-4.749658521591698102e-01,4.126075540422667436e-03
2.035999999999999943e+01,-5.145053791249331043e-01,2.067615451824811150e-03,-4.800613301900038543e-01,9.374986707606650441e-03
2.037199999999999989e+01,-5.099472699832295897e-01,1.645365919936160951e-02,-4.850327571620349221e-01,1.476918679076659295e-02
2.038400000000000034e+01,-5.049969346663365499e-01,3.067725325244454251e-02,-4.898761809742399609e-01,2.030553787059078893e-02
2.039600000000000080e+01,-4.996588934723251163e-01,4.472678295998101794e-02,-4.945877235521600190e-01,2.598080831272979105e-02
2.040800000000000125e+01,-4.939380000364305134e-01,5.859079936542378741e-02,-4.991635834923895954e-01,3.179167489032486138e-02
2.042000000000000171e+01,-4.878394303966240853e-01,7.225802759259870867e-02,-5.036000385151330194e-01,3.773472518235020112e-02
2.043199999999999861e+01,-4.813686718308543555e-01,8.571737432869522277e-02,-5.078934476903426143e-01,4.380646021608917279e-02
2.044399999999999906e+01,-4.745315115329833411e-01,9.895793439322721208e-02,-5.120402534063220878e-01,5.000329732055990711e-02
2.045599999999999952e+01,-4.673340251950272584e-01,1.119689963859781673e-01,-5.160369830553680481e-01,5.632157315509731671e-02
2.046799999999999997e+01,-4.597825655633520081e-01,1.247400474111811236e-01,-5.198802504142860936e-01,6.275754687631890372e-02
2.048000000000000043e+01,-4.518837510365591448e-01,1.372607768787646454e-01,-5.235667567025624747e-01,6.930740340504032426e-02
2.049200000000000088e+01,-4.436444543726973389e-01,1.495210793879485356e-01,-5.270932913044862334e-01,7.596725675459778393e-02
2.050400000000000134e+01,-4.350717915731373009e-01,1.615110567016550536e-01,-5.304567321455911921e-01,8.273315338108919170e-02
2.051599999999999824e+01,-4.261731110096023678e-01,1.732210188243720472e-01,-5.336540457176126573e-01,8.960107551612371546e-02
2.052799999999999869e+01,-4.169559828610277519e-01,1.846414841991348699e-01,-5.366822867491689575e-01,9.656694444288266288e-02
2.053999999999999915e+01,-4.074281889252526212e-01,1.957631790428870089e-01,-5.395385975231241638e-01,1.036266236763523363e-01
2.055199999999999960e+01,-3.975977128706531527e-01,2.065770358428211662e-01,-5.422202068444682554e-01,1.107759220091974611e-01
2.056400000000000006e+01,-3.874727309916745077e-01,2.170741910390157625e-01,-5.447244286654097101e-01,1.180105963853012446e-01
2.057600000000000051e+01,-3.770616035314648951e-01,2.272459819220410682e-01,-5.470486603772743983e-01,1.253263545636494336e-01
2.058800000000000097e+01,-3.663728666342111473e-01,2.370839427769508012e-01,-5.491903807811978622e-01,1.327188575359768696e-01
2.060000000000000142e+01,-3.554152249890574211e-01,2.465798003077307454e-01,-5.511471477521301399e-01,1.401837216624525762e-01
2.061199999999999832e+01,-3.441975452268904445e-01,2.557254683792127281e-01,-5.529165956128548887e-01,1.477165204903336249e-01
2.062399999999999878e+01,-3.327288501307836821e-01,2.645130421161066003e-01,-5.544964322369613230e-01,1.553127862214670196e-01
2.063599999999999923e+01,-3.210183137207373583e-01,2.729347914013224852e-01,-5.558844359016921199e-01,1.629680107951088086e-01
2.064799999999999969e+01,-3.090752572729093539e-01,2.809831538187173017e-01,-5.570784519136113833e-01,1.706776465533634546e-01
2.066000000000000014e+01,-2.969091463338173753e-01,2.886507270879928866e-01,-5.580763890319598852e-01,1.784371064570880461e-01
2.067200000000000060e+01,-2.845295887900740617e-01,2.959302610424681679e-01,-5.588762157164727240e-01,1.862417638206916581e-01
2.068400000000000105e+01,-2.719463340547076946e-01,3.028146492034710646e-01,-5.594759562283569965e-01,1.940869515347032892e-01
2.069600000000000151e+01,-2.591692734318243319e-01,3.092969200083846570e-01,-5.598736866150909597e-01,2.019679607453334358e-01
2.070799999999999841e+01,-2.462084417222801525e-01,3.153702277529524256e-01,-5.600675306117343100e-01,2.098800389604852379e-01
2.071999999999999886e+01,-2.330740201342058338e-01,3.210278433123427422e-01,-5.600556554936105824e-01,2.178183875517994694e-01
2.073199999999999932e+01,-2.197763405637953582e-01,3.262631447098057746e-01,-5.598362679175010737e-01,2.257781586222923909e-01
2.074399999999999977e+01,-2.063258913132430539e-01,3.310696076066346749e-01,-5.594076097910409828e-01,2.337544512090971305e-01
2.075600000000000023e+01,-1.927333243149401132e-01,3.354407957924892547e-01,-5.587679542127075294e-01,2.417423067905216660e-01
2.076800000000000068e+01,-1.790094639329683768e-01,3.393703517614148901e-01,-5.579156015278836644e-01,2.497367040663885374e-01
2.078000000000000114e+01,-1.651653174155068848e-01,3.428519874656195676e-01,-5.568488755498586240e-01,2.577325529801848814e-01
2.079200000000000159e+01,-1.512120870742155732e-01,3.458794753471453043e-01,-5.555661199984546217e-01,2.657246879511368509e-01
2.080399999999999849e+01,-1.371611842693323813e-01,3.484466397562924755e-01,-5.540656952132042568e-01,2.737078602837709762e-01
2.081599999999999895e+01,-1.230242452820067972e-01,3.505473488758410472e-01,-5.523459752028908598e-01,2.816767297221736688e-01
2.082799999999999940e+01,-1.088131491581075250e-01,3.521755072815013210e-01,-5.504053450986258200e-01,2.896258551155428962e-01
2.083999999999999986e+01,-9.454003761027955643e-02,3.533250492819996480e-01,-5.482421990837815784e-01,2.975496841615283827e-01
2.085200000000000031e+01,-8.021733706743537640e-02,3.539899331967752416e-01,-5.458549388809686986e-01,3.054425421935065277e-01
2.086400000000000077e+01,-6.585778296288825884e-02,3.541641367458113199e-01,-5.432419728839658069e-01,3.132986199781647718e-01
2.087600000000000122e+01,-5.147444635367039861e-02,3.538416537446665289e-01,-5.404017160312103440e-01,3.211119604901803704e-01
2.088800000000000168e+01,-3.708076296422424534e-02,3.530164923186965842e-01,-5.373325905271097991e-01,3.288764446316777557e-01
2.089999999999999858e+01,-2.269056474730869744e-02,3.516826748738246522e-01,-5.340330275283328154e-01,3.365857758656997656e-01
2.091199999999999903e+01,-8.318114053037195879e-03,3.498342400874613900e-01,-5.305014699242587284e-01,3.442334637351951998e-01
2.092399999999999949e+01,6.021859506372616647e-03,3.474652472123931357e-01,-5.267363763542206589e-01,3.518128062422352098e-01
2.093599999999999994e+01,2.031411941450713549e-02,3.445697830189196065e-01,-5.227362266189667928e-01,3.593168710666403420e-01
2.094800000000000040e+01,3.454287975792556808e-02,3.411419717366723781e-01,-5.184995286601593589e-01,3.667384756090092957e-01
2.096000000000000085e+01,4.869175982104581579e-02,3.371759883972840766e-01,-5.140248272997197665e-01,3.740701658507577521e-01
2.097200000000000131e+01,6.274373572310543157e-02,3.326660760230536473e-01,-5.093107149504587650e-01,3.813041940335157309e-01
2.098400000000000176e+01,7.668108907222212500e-02,3.276065671547316316e-01,-5.043558445308671256e-01,3.884324951724180131e-01
2.099599999999999866e+01,9.048535263838450304e-02,3.219919102641613518e-01,-4.991589448400963192e-01,3.954466624330831848e-01
2.100799999999999912e+01,1.041372530809408226e-01,3.158167016543231842e-01,-4.937188386740395951e-01,4.023379214208728794e-01
2.101999999999999957e+01,1.176166508082927137e-01,3.090757235108640422e-01,-4.880344639900702219e-01,4.090971034538739559e-01
2.103200000000000003e+01,1.309024770997881670e-01,3.017639888348565558e-01,-4.821048984560227790e-01,4.157146179190140400e-01
2.104400000000000048e+01,1.439726686834341129e-01,2.938767940563717374e-01,-4.759293877485027413e-01,4.221804238441154156e-01
2.105600000000000094e+01,1.568041000406604490e-01,2.854097802017526719e-01,-4.695073779959493820e-01,4.284840008588668980e-01
2.106800000000000139e+01,1.693725138026360710e-01,2.763590035634901354e-01,-4.628385527927363352e-01,4.346143197653687396e-01
2.107999999999999829e+01,1.816524497143763850e-01,2.667210168992019126e-01,-4.559228752412677887e-01,4.405598129953031683e-01
2.109199999999999875e+01,1.936171727756455241e-01,2.564929622637637796e-01,-4.487606355085571042e-01,4.463083452970960652e-01
2.110399999999999920e+01,2.052386013244486274e-01,2.456726766540428819e-01,-4.413525044111455964e-01,4.518471850738604578e-01
2.111599999999999966e+01,2.164872360130942475e-01,2.342588117159194461e-01,-4.336995935656957069e-01,4.571629768830166030e-01
2.112800000000000011e+01,2.273320908413628827e-01,2.222509688250275950e-01,-4.258035226605866308e-01,4.622417157123496212e-01
2.114000000000000057e+01,2.377406276601217727e-01,2.096498509008958566e-01,-4.176664944137264968e-01,4.670687237665748781e-01
2.115200000000000102e+01,2.476786958448705944e-01,1.964574323433654901e-01,-4.092913777808204201e-01,4.716286306343437373e-01
2.116400000000000148e+01,2.571104791655309807e-01,1.826771484830180259e-01,-4.006817999629340710e-01,4.759053578592510880e-01
2.117599999999999838e+01,2.659984522490579373e-01,1.683141059051208865e-01,-3.918422477280730787e-01,4.798821091106477699e-01
2.118799999999999883e+01,2.743033494471280864e-01,1.533753149287281625e-01,-3.827781785036306617e-01,4.835413673413281876e-01
2.119999999999999929e+01,2.819841493831240498e-01,1.378699453866428504e-01,-3.734961416090643582e-01,4.868649005291788567e-01
2.121199999999999974e+01,2.889980789601704347e-01,1.218096066429078528e-01,-3.640039098739638046e-01,4.898337778276105614e-01
2.122400000000000020e+01,2.953006411616780347e-01,1.052086524859126432e-01,-3.543106217182933060e-01,4.924283981925538511e-01
2.123600000000000065e+01,3.008456715618017530e-01,8.808451112722691378e-02,-3.444269335499550722e-01,4.946285338082144212e-01
2.124800000000000111e+01,3.055854290747607171e-01,7.045803999792350780e-02,-3.343651820505931793e-01,4.964133908935881023e-01
2.126000000000000156e+01,3.094707270937417931e-01,5.235390434190310971e-02,-3.241395555635476211e-01,4.977616907285064562e-01
2.127199999999999847e+01,3.124511117801223037e-01,3.380097773530205130e-02,-3.137662733576829788e-01,4.986517739801440419e-01
2.128399999999999892e+01,3.144750948321047290e-01,1.483276158769763521e-02,-3.032637710074101434e-01,4.990617316231769074e-01
2.129599999999999937e+01,3.154904485495992894e-01,-4.512180618579656431e-03,-2.926528894936962777e-01,4.989695659096597402e-01
2.130799999999999983e+01,3.154445713696569231e-01,-2.418978014063632304e-02,-2.819570648861156603e-01,4.983533849337720145e-01
2.132000000000000028e+01,3.142849322123197897e-01,-4.415001843365277262e-02,-2.712025146090681904e-01,4.971916343223087287e-01
2.133200000000000074e+01,3.119596018765616874e-01,-6.433649092067383890e-02,-2.604184153276513092e-01,4.954633694291543655e-01
2.134400000000000119e+01,3.084178792733019425e-01,-8.468599106148380629e-02,-2.496370664197888889e-01,4.931485710807439471e-01
2.135600000000000165e+01,3.036110193789993139e-01,-1.051281292558878394e-01,-2.388940318498764259e-01,4.902285073650576308e-01
2.136799999999999855e+01,2.974930683319477742e-01,-1.255850038330501017e-01,-2.282282520568487960e-01,4.866861431313445063e-01
2.137999999999999901e+01,2.900218089622143003e-01,-1.459709441765894844e-01,-2.176821162627702311e-01,4.825065977234269110e-01
2.139199999999999946e+01,2.811598171361287535e-01,-1.661923487894763907e-01,-2.073014844614244345e-01,4.776776499611705140e-01
2.140399999999999991e+01,2.708756255107626632e-01,-1.861476436443532390e-01,-1.971356473441763790e-01,4.721902874756486179e-01
2.141600000000000037e+01,2.591449865626538340e-01,-2.057273882761238848e-01,-1.872372116685935561e-01,4.660392951716901266e-01
2.142800000000000082e+01,2.459522210503722051e-01,-2.248145584901063698e-01,-1.776618981996005431e-01,4.592238748371907375e-01
2.144000000000000128e+01,2.312916314271074858e-01,-2.432850349713599758e-01,-1.684682394970627717e-01,4.517482847738170659e-01
2.145199999999999818e+01,2.151689522558746792e-01,-2.610083261474911986e-01,-1.597171656422549380e-01,4.436224848615648031e-01
2.146399999999999864e+01,1.976028016196217929e-01,-2.778485510231400446e-01,-1.514714676443676689e-01,4.348627688131556090e-01
2.147599999999999909e+01,1.786260892087798147e-01,-2.936657030295657944e-01,-1.437951308894051261e-01,4.254923617040280437e-01
2.148799999999999955e+01,1.582873286911940514e-01,-3.083172089324355269e-01,-1.367525346970476507e-01,4.155419574206543065e-01
2.150000000000000000e+01,1.366517947417798806e-01,-3.216597873317429412e-01,-1.304075188913732808e-01,4.050501677540754297e-01
2.151200000000000045e+01,1.138024594674062057e-01,-3.335515992446257960e-01,-1.248223242432311697e-01,3.940638528243249894e-01
2.152400000000000091e+01,8.984063972560200895e-02,-3.438546688707406207e-01,-1.200564205765830700e-01,3.826383017308522261e-01
2.153600000000000136e+01,6.488628684440943262e-02,-3.524375363483451262e-01,-1.161652439950588700e-01,3.708372331571476721e-01
2.154800000000000182e+01,3.907785428432712649e-02,-3.591780868576437413e-01,-1.131988726904333137e-01,3.587325884437467249e-01
2.155999999999999872e+01,1.257168745587168568e-02,-3.639664828544607045e-01,-1.112006786219446042e-01,3.464040946191137005e-01
2.157199999999999918e+01,-1.445910644706987699e-02,-3.667081098250999927e-01,-1.102059993739099991e-01,3.339385821342947813e-01
2.158399999999999963e+01,-4.182633217083061433e-02,-3.673264322328639309e-01,-1.102408800099416719e-01,3.214290514838816226e-01
2.159600000000000009e+01,-6.932892429930410938e-02,-3.657656468323295385e-01,-1.113209380403979432e-01,3.089734941836731474e-01
2.160800000000000054e+01,-9.675568364975752067e-02,-3.619930167126271248e-01,-1.134504050745053366e-01,2.966734861450186500e-01
2.162000000000000099e+01,-1.238884784259776939e-01,-3.560007724607572310e-01,-1.166213958704090531e-01,2.846325845423145484e-01
2.163200000000000145e+01,-1.505058285285750530e-01,-3.478074773982093304e-01,-1.208134491018761775e-01,2.729545718457352388e-01
2.164399999999999835e+01,-1.763867660092864054e-01,-3.374587719915405071e-01,-1.259933743184019073e-01,2.617416017286382512e-01
2.165599999999999881e+01,-2.013148439610639995e-01,-3.250274375905807811e-01,-1.321154267215814693e-01,2.510923100224776161e-01
2.166799999999999926e+01,-2.250821522017755760e-01,-3.106127501856801865e-01,-1.391218162881712461e-01,2.410999588912217939e-01
2.167999999999999972e+01,-2.474931924907798619e-01,-2.943391288262877659e-01,-1.469435414943191243e-01,2.318506833052829952e-01
2.169200000000000017e+01,-2.683684695582475577e-01,-2.763541181759048282e-01,-1.555015216717516580e-01,2.234219054431602069e-01
2.170400000000000063e+01,-2.875476669251877393e-01,-2.568257776670313519e-01,-1.647079871396743556e-01,2.158809749770700392e-01
2.171600000000000108e+01,-3.048922974669646679e-01,-2.359395782512218598e-01,-1.744680738922632091e-01,2.092840818551257864e-01
2.172800000000000153e+01,-3.202877462544682641e-01,-2.138949296123626720e-01,-1.846815607330900000e-01,2.036754740765933935e-01
2.173999999999999844e+01,-3.336446551271604055e-01,-1.909014743825063198e-01,-1.952446819461773064e-01,1.990869972161100898e-01
2.175199999999999889e+01,-3.448996321144407462e-01,-1.671752906385607640e-01,-2.060519480901062128e-01,1.955379563486435712e-01
2.176399999999999935e+01,-3.540153016013506959e-01,-1.429351398908549065e-01,-2.169979111030209962e-01,1.930352857901267705e-01
2.177599999999999980e+01,-3.609797406657240804e-01,-1.183988858131750782e-01,-2.279788170613171738e-01,1.915739987675074418e-01
2.178800000000000026e+01,-3.658053714193341688e-01,-9.378019064574009966e-02,-2.388940998223738343e-01,1.911378785723841789e-01
2.180000000000000071e+01,-3.685273972259617836e-01,-6.928557346305128095e-02,-2.496476804260230331e-01,1.917003654192609707e-01
2.181200000000000117e+01,-3.692018817936351671e-01,-4.511188942728972667e-02,-2.601490495172738004e-01,1.932255892750454340e-01
2.182400000000000162e+01,-3.679035744482245240e-01,-2.144426375520794639e-02,-2.703141222418681267e-01,1.956694981993169491e-01
2.183599999999999852e+01,-3.647235830369210396e-01,1.545509842921689945e-03,-2.800658662674656574e-01,1.989810338407852486e-01
2.184799999999999898e+01,-3.597669889209691441e-01,2.370011768618732542e-02,-2.893347132123031962e-01,2.031033101150655773e-01
2.185999999999999943e+01,-3.531504876593353770e-01,4.487745055292390733e-02,-2.980587714592343174e-01,2.079747571008928875e-01
