Frequency, Re(SMin1Min1), Im(SMin1Min1), Re(SMax1Min1), Im(SMax1Min1)
2.000000000000000000e+01,-4.534573959102559670e-01,-4.648649184773828158e-01,-2.815812042419317263e-01,-7.344708660109001974e-02
2.001200000000000045e+01,-4.613096560236590871e-01,-4.515069041090376545e-01,-2.881273943379795699e-01,-7.351085746963703649e-02
2.002400000000000091e+01,-4.688161340883416073e-01,-4.379316390338109932e-01,-2.947088753625259905e-01,-7.339382216414483406e-02
2.003600000000000136e+01,-4.759687329134787426e-01,-4.241490274372627933e-01,-3.013203216921511718e-01,-7.309414823703676289e-02
2.004799999999999827e+01,-4.827596799559661922e-01,-4.101692992375909896e-01,-3.079563283661502227e-01,-7.261018184422522725e-02
2.005999999999999872e+01,-4.891815411147323323e-01,-3.960029964399721658e-01,-3.146114185426235332e-01,-7.194045081611047388e-02
2.007199999999999918e+01,-4.952272337437784167e-01,-3.816609588190982283e-01,-3.212800510767362949e-01,-7.108366731728496535e-02
2.008399999999999963e+01,-5.008900388427879324e-01,-3.671543089844049867e-01,-3.279566281935122340e-01,-7.003873008848891801e-02
2.009600000000000009e+01,-5.061636123882334859e-01,-3.524944368856638977e-01,-3.346355032269821561e-01,-6.880472626641116751e-02
2.010800000000000054e+01,-5.110419957723224549e-01,-3.376929838192116451e-01,-3.413109883972748615e-01,-6.738093277899755151e-02
2.012000000000000099e+01,-5.155196253217189106e-01,-3.227618259974666670e-01,-3.479773625970702944e-01,-6.576681731602225522e-02
2.013200000000000145e+01,-5.195913408727365068e-01,-3.077130577463354499e-01,-3.546288791588850797e-01,-6.396203887676954469e-02
2.014399999999999835e+01,-5.232523933846123798e-01,-2.925589743966857670e-01,-3.612597735748350747e-01,-6.196644789875913051e-02
2.015599999999999881e+01,-5.264984515774913110e-01,-2.773120549372300458e-01,-3.678642711408965926e-01,-5.978008597350185221e-02
2.016799999999999926e+01,-5.293256075868089106e-01,-2.619849444970164254e-01,-3.744365944981390415e-01,-5.740318515730765542e-02
2.017999999999999972e+01,-5.317303816309328912e-01,-2.465904367259684482e-01,-3.809709710441366859e-01,-5.483616688711955012e-02
2.019200000000000017e+01,-5.337097256939841161e-01,-2.311414561420307989e-01,-3.874616401884934391e-01,-5.207964051327553662e-02
2.020400000000000063e+01,-5.352610262308902245e-01,-2.156510405129834773e-01,-3.939028604273813738e-01,-4.913440146292789162e-02
2.021600000000000108e+01,-5.363821059067216401e-01,-2.001323233402064750e-01,-4.002889162130618406e-01,-4.600142904960478896e-02
2.022800000000000153e+01,-5.370712243872973746e-01,-1.845985165105000214e-01,-4.066141245955213201e-01,-4.268188394606189928e-02
2.023999999999999844e+01,-5.373270782028239934e-01,-1.690628931805345236e-01,-4.128728416146528191e-01,-3.917710533913255216e-02
2.025199999999999889e+01,-5.371487997109918311e-01,-1.535387709565882997e-01,-4.190594684228106104e-01,-3.548860778673322558e-02
2.026399999999999935e+01,-5.365359551903939872e-01,-1.380394954301341903e-01,-4.251684571190043060e-01,-3.161807779854470396e-02
2.027599999999999980e+01,-5.354885420994003331e-01,-1.225784241271669628e-01,-4.311943162776042948e-01,-2.756737016307752447e-02
2.028800000000000026e+01,-5.340069855396457621e-01,-1.071689109265480250e-01,-4.371316161559934965e-01,-2.333850404497362502e-02
2.030000000000000071e+01,-5.320921339670895422e-01,-9.182429099951583407e-02,-4.429749935672906980e-01,-1.893365887735634287e-02
2.031200000000000117e+01,-5.297452541971430229e-01,-7.655786631928671038e-02,-4.487191564059757609e-01,-1.435517007491369720e-02
2.032400000000000162e+01,-5.269680257536439871e-01,-6.138289178620914138e-02,-4.543588878159804945e-01,-9.605524594138123082e-03
2.033599999999999852e+01,-5.237625346144529903e-01,-4.631256201031129505e-02,-4.598890499925655795e-01,-4.687356367772252050e-03
2.034799999999999898e+01,-5.201312664091963800e-01,-3.135999878927906576e-02,-4.653045876110778467e-01,3.965583589922794597e-04
2.035999999999999943e+01,-5.160770991271347308e-01,-1.653823931610359788e-02,-4.706005308774153795e-01,5.643305762588611552e-03
2.037199999999999989e+01,-5.116032953953026929e-01,-1.860225146499057750e-03,-4.757719981968367429e-01,1.104983921720478421e-02
2.038400000000000034e+01,-5.067134943890239107e-01,1.266120804770178195e-02,-4.808141984594306306e-01,1.661298408451112804e-02
2.039600000000000080e+01,-5.014117034385163763e-01,2.701333991715483204e-02,-4.857224329423069364e-01,2.232944248845420906e-02
2.040800000000000125e+01,-4.957022893967620858e-01,4.118357404767880592e-02,-4.904920968302443618e-01,2.819579804655893487e-02
2.042000000000000171e+01,-4.895899698349564511e-01,5.515944573318279365e-02,-4.951186803581691387e-01,3.420852052923886721e-02
2.043199999999999861e+01,-4.830798041328293047e-01,6.892862889913195512e-02,-4.995977695804539320e-01,4.036397041873505953e-02
2.044399999999999906e+01,-4.761771845318709118e-01,8.247894217093619529e-02,-5.039250467735859607e-01,4.665840333949486385e-02
2.045599999999999952e+01,-4.688878272201108532e-01,9.579835408559166099e-02,-5.080962904802657221e-01,5.308797433198715610e-02
2.046799999999999997e+01,-4.612177635174426471e-01,1.088749874490238523e-01,-5.121073752045021132e-01,5.964874194227242493e-02
2.048000000000000043e+01,-4.531733312308371953e-01,1.216971228453597037e-01,-5.159542707686832763e-01,6.633667209986693347e-02
2.049200000000000088e+01,-4.447611662489095452e-01,1.342532013083003739e-01,-5.196330413450098717e-01,7.314764175677336555e-02
2.050400000000000134e+01,-4.359881944453911640e-01,1.465318261685375489e-01,-5.231398441750582107e-01,8.007744226084091699e-02
2.051599999999999824e+01,-4.268616239610686369e-01,1.585217640949013462e-01,-5.264709279925664509e-01,8.712178243690926749e-02
2.052799999999999869e+01,-4.173889379337090699e-01,1.702119453506493185e-01,-5.296226311658728259e-01,9.427629134948441181e-02
2.053999999999999915e+01,-4.075778877454967475e-01,1.815914632898945336e-01,-5.325913795777328374e-01,1.015365207209007192e-01
2.055199999999999960e+01,-3.974364868573880272e-01,1.926495731229400932e-01,-5.353736842615888225e-01,1.088979469792124843e-01
2.056400000000000006e+01,-3.869730052998825998e-01,2.033756899828067788e-01,-5.379661388146632639e-01,1.163559729101589779e-01
2.057600000000000051e+01,-3.761959648897166830e-01,2.137593863289958263e-01,-5.403654166096297784e-01,1.239059288877093767e-01
2.058800000000000097e+01,-3.651141352421429787e-01,2.237903887282275683e-01,-5.425682678280209226e-01,1.315430736577477278e-01
2.060000000000000142e+01,-3.537365306487014749e-01,2.334585740557341138e-01,-5.445715163399973413e-01,1.392625946494542022e-01
2.061199999999999832e+01,-3.420724078907450005e-01,2.427539651646300756e-01,-5.463720564566805216e-01,1.470596077888789710e-01
2.062399999999999878e+01,-3.301312650594571130e-01,2.516667260750493629e-01,-5.479668495828915464e-01,1.549291567890759558e-01
2.063599999999999923e+01,-3.179228414538045056e-01,2.601871567390319218e-01,-5.493529207999704456e-01,1.628662118909154632e-01
2.064799999999999969e+01,-3.054571186285450768e-01,2.683056874418986437e-01,-5.505273554102968481e-01,1.708656680284932894e-01
2.066000000000000014e+01,-2.927443226654813935e-01,2.760128729057538810e-01,-5.514872954772889191e-01,1.789223423926336320e-01
2.067200000000000060e+01,-2.797949277421911130e-01,2.832993861662296831e-01,-5.522299363970443187e-01,1.870309713656238826e-01
2.068400000000000105e+01,-2.666196610737552875e-01,2.901560122994850111e-01,-5.527525235404220361e-01,1.951862067998496320e-01
2.069600000000000151e+01,-2.532295093044040768e-01,2.965736420829764297e-01,-5.530523490072982717e-01,2.033826116125034555e-01
2.070799999999999841e+01,-2.396357264275255083e-01,3.025432656806810172e-01,-5.531267485380250148e-01,2.116146546680224561e-01
2.071999999999999886e+01,-2.258498433140720130e-01,3.080559664514286311e-01,-5.529730986307599405e-01,2.198767049194030321e-01
2.073199999999999932e+01,-2.118836789311342450e-01,3.131029149877871953e-01,-5.525888139174699454e-01,2.281630247789991350e-01
2.074399999999999977e+01,-1.977493533339662046e-01,3.176753635028658485e-01,-5.519713448559652180e-01,2.364677626890564766e-01
2.075600000000000023e+01,-1.834593025164619751e-01,3.217646406933205583e-01,-5.511181758004863873e-01,2.447849448618132917e-01
2.076800000000000068e+01,-1.690262952064063018e-01,3.253621472191499109e-01,-5.500268235190848287e-01,2.531084661588586804e-01
2.078000000000000114e+01,-1.544634516929951351e-01,3.284593519545573881e-01,-5.486948362324527428e-01,2.614320800794402988e-01
2.079200000000000159e+01,-1.397842647748546718e-01,3.310477891794481042e-01,-5.471197932560084576e-01,2.697493878277117396e-01
2.080399999999999849e+01,-1.250026229169705350e-01,3.331190568981884370e-01,-5.452993053349873831e-01,2.780538264295667195e-01
2.081599999999999895e+01,-1.101328357043322714e-01,3.346648164912663370e-01,-5.432310157711314202e-01,2.863386558708398977e-01
2.082799999999999940e+01,-9.518966167863703032e-02,3.356767939266322442e-01,-5.409126024493720042e-01,2.945969452303159875e-01
2.083999999999999986e+01,-8.018833864142560497e-02,3.361467827810046272e-01,-5.383417808837148710e-01,3.028215577834817984e-01
2.085200000000000031e+01,-6.514461650278975668e-02,3.360666493474432359e-01,-5.355163084135027285e-01,3.110051350561880978e-01
2.086400000000000077e+01,-5.007479274834050753e-02,3.354283401342894044e-01,-5.324339896943527384e-01,3.191400798118054771e-01
2.087600000000000122e+01,-3.499575058839254904e-02,3.342238920923067957e-01,-5.290926836424657553e-01,3.272185379611233236e-01
2.088800000000000168e+01,-1.992499984161040169e-02,3.324454459417437446e-01,-5.254903120067201394e-01,3.352323793914553374e-01
2.089999999999999858e+01,-4.880720590108611132e-03,3.300852630092644402e-01,-5.216248697600454065e-01,3.431731777204878875e-01
2.091199999999999903e+01,1.011819037655813276e-02,3.271357460263665806e-01,-5.174944375200580815e-01,3.510321889916873661e-01
2.092399999999999949e+01,2.505207033560047716e-02,3.235894643862197162e-01,-5.130971962288642940e-01,3.588003293418614015e-01
2.093599999999999994e+01,3.990043866129832500e-02,3.194391844047438367e-01,-5.084314443431712238e-01,3.664681516884345513e-01
2.094800000000000040e+01,5.464194218694207877e-02,3.146779051843229258e-01,-5.034956178084893930e-01,3.740258215043161805e-01
2.096000000000000085e+01,6.925429802021536296e-02,3.092989007345627317e-01,-4.982883131149727363e-01,3.814630917728067949e-01
2.097200000000000131e+01,8.371423398975016972e-02,3.032957690637678172e-01,-4.928083137572109584e-01,3.887692772442548073e-01
2.098400000000000176e+01,9.799742696792930474e-02,2.966624890168596540e-01,-4.870546204457716910e-01,3.959332281509287399e-01
2.099599999999999866e+01,1.120784393954959435e-01,2.893934856996273064e-01,-4.810264854440480242e-01,4.029433035776049388e-01
2.100799999999999912e+01,1.259306544291921848e-01,2.814837053945476453e-01,-4.747234514294721430e-01,4.097873447335591002e-01
2.101999999999999957e+01,1.395262102464788490e-01,2.729287009387164620e-01,-4.681453953027402415e-01,4.164526484278901486e-01
2.103200000000000003e+01,1.528359341741138966e-01,2.637247285977872280e-01,-4.612925773912828764e-01,4.229259411155538162e-01
2.104400000000000048e+01,1.658292774619757326e-01,2.538688575292950000e-01,-4.541656965128640921e-01,4.291933539569622313e-01
2.105600000000000094e+01,1.784742517031747133e-01,2.433590929811850767e-01,-4.467659513801833238e-01,4.352403994208653426e-01
2.106800000000000139e+01,1.907373681085785255e-01,2.321945144133747696e-01,-4.390951088360336985e-01,4.410519500593478304e-01
2.107999999999999829e+01,2.025835810812387228e-01,2.203754297571866583e-01,-4.311555794086067150e-01,4.466122201963115823e-01
2.109199999999999875e+01,2.139762378063935211e-01,2.079035470339913871e-01,-4.229505006652430898e-01,4.519047513976132135e-01
2.110399999999999920e+01,2.248770358779018097e-01,1.947821645338274898e-01,-4.144838288171079910e-01,4.569124027328007598e-01
2.111599999999999966e+01,2.352459913241582712e-01,1.810163806988085988e-01,-4.057604389829167491e-01,4.616173469956374453e-01
2.112800000000000011e+01,2.450414197762711133e-01,1.666133247557197439e-01,-3.967862344526993379e-01,4.660010742230781822e-01
2.114000000000000057e+01,2.542199339387626877e-01,1.515824089857684409e-01,-3.875682651972093273e-01,4.700444040395932443e-01
2.115200000000000102e+01,2.627364609761533298e-01,1.359356032944363246e-01,-3.781148557391971754e-01,4.737275085540313402e-01
2.116400000000000148e+01,2.705442839136361632e-01,1.196877324360343109e-01,-3.684357423326756753e-01,4.770299477470260063e-01
2.117599999999999838e+01,2.775951116597622503e-01,1.028567958396135601e-01,-3.585422191782278167e-01,4.799307195041845331e-01
2.118799999999999883e+01,2.838391827832337233e-01,8.546430945743849206e-02,-3.484472931284900987e-01,4.824083266681591931e-01
2.119999999999999929e+01,2.892254086994968110e-01,6.753566839546489009e-02,-3.381658460001828459e-01,4.844408636931565870e-01
2.121199999999999974e+01,2.937015624256442137e-01,4.910052826720992525e-02,-3.277148031990623767e-01,4.860061256779721894e-01
2.122400000000000020e+01,2.972145195169127452e-01,3.019320221948089064e-02,-3.171133068747338801e-01,4.870817427145358591e-01
2.123600000000000065e+01,2.997105581706093758e-01,1.085306939248189065e-02,-3.063828912465464960e-01,4.876453426011679304e-01
2.124800000000000111e+01,3.011357257303149404e-01,-8.875010815868739772e-03,-2.955476570756633281e-01,4.876747450123530836e-01
2.126000000000000156e+01,3.014362788924486725e-01,-2.894028591959449739e-02,-2.846344415004886663e-01,4.871481901647661261e-01
2.127199999999999847e+01,3.005592047465517336e-01,-4.928570800959172771e-02,-2.736729786062829795e-01,4.860446048434535204e-01
2.128399999999999892e+01,2.984528292983959497e-01,-6.984755300110066789e-02,-2.626960451744010938e-01,4.843439083194471806e-01
2.129599999999999937e+01,2.950675192511021394e-01,-9.055507475111118643e-02,-2.517395850698295190e-01,4.820273601645490014e-01
2.130799999999999983e+01,2.903564814675788641e-01,-1.113302096586139683e-01,-2.408428047048003784e-01,4.790779512125451500e-01
2.132000000000000028e+01,2.842766626189687229e-01,-1.320873497359373039e-01,-2.300482310014263787e-01,4.754808378908262911e-01
2.133200000000000074e+01,2.767897489528661215e-01,-1.527332044602359717e-01,-2.194017223208514777e-01,4.712238188175142950e-01
2.134400000000000119e+01,2.678632628173465702e-01,-1.731667738406865997e-01,-2.089524219999595311e-01,4.662978508988152582e-01
2.135600000000000165e+01,2.574717484991393968e-01,-1.932794568932680035e-01,-1.987526435246056433e-01,4.606976001535061926e-01
2.136799999999999855e+01,2.455980350573848392e-01,-2.129553208881981574e-01,-1.888576760718137793e-01,4.544220201380558821e-01
2.137999999999999901e+01,2.322345581876433251e-01,-2.320715570789528837e-01,-1.793254992867407693e-01,4.474749481733332201e-01
2.139199999999999946e+01,2.173847168282787290e-01,-2.504991478647660141e-01,-1.702163968464381338e-01,4.398657066403368621e-01
2.140399999999999991e+01,2.010642333969610007e-01,-2.681037681989892341e-01,-1.615924597251977846e-01,4.316096935142404445e-01
2.141600000000000037e+01,1.833024794877689545e-01,-2.847469402613168055e-01,-1.535169722301132078e-01,4.227289431838974765e-01
2.142800000000000082e+01,1.641437219404806025e-01,-3.002874547304225650e-01,-1.460536769107013688e-01,4.132526356446071247e-01
2.144000000000000128e+01,1.436482378895756473e-01,-3.145830642658762333e-01,-1.392659184137158002e-01,4.032175295881268995e-01
2.145199999999999818e+01,1.218932422818169159e-01,-3.274924449893274470e-01,-1.332156712454962977e-01,3.926682930169568264e-01
2.146399999999999864e+01,9.897356805872879748e-02,-3.388774099553689134e-01,-1.279624621344047641e-01,3.816577040763414752e-01
2.147599999999999909e+01,7.500203840374218556e-02,-3.486053451253633417e-01,-1.235622040776440944e-01,3.702466951277517127e-01
2.148799999999999955e+01,5.010947279317250896e-02,-3.565518237272748414e-01,-1.200659659295922194e-01,3.585042149569404035e-01
2.150000000000000000e+01,2.444427460390967421e-02,-3.626033398553957787e-01,-1.175187081589114946e-01,3.465068876334558290e-01
2.151200000000000045e+01,-1.828441930314900297e-03,-3.666600877065727682e-01,-1.159580216923946083e-01,3.343384520324813036e-01
2.152400000000000091e+01,-2.852821347615369998e-02,-3.686387001036082189e-01,-1.154129120321090995e-01,3.220889733739656369e-01
2.153600000000000136e+01,-5.546108814292051437e-02,-3.684748501520305197e-01,-1.159026745108908546e-01,3.098538271404556732e-01
2.154800000000000182e+01,-8.242197370132550716e-02,-3.661256142223318077e-01,-1.174359081017991718e-01,2.977324660315731064e-01
2.155999999999999872e+01,-1.091974390576914561e-01,-3.615714940000991362e-01,-1.200097141759035035e-01,2.858269916447096493e-01
2.157199999999999918e+01,-1.355689105392080263e-01,-3.548180008573563748e-01,-1.236091227257718611e-01,2.742405636262946755e-01
2.158399999999999963e+01,-1.613161815022462198e-01,-3.458967175959539730e-01,-1.282067817730325188e-01,2.630756892982585304e-01
2.159600000000000009e+01,-1.862211335304367332e-01,-3.348657704942361035e-01,-1.337629361489005020e-01,2.524324453795139256e-01
2.160800000000000054e+01,-2.100715518028241635e-01,-3.218096677720241883e-01,-1.402257100382343358e-01,2.424066895990029669e-01
2.162000000000000099e+01,-2.326649075933664157e-01,-3.068384877424591983e-01,-1.475316943218955568e-01,2.330883230902951742e-01
2.163200000000000145e+01,-2.538119783766945026e-01,-2.900864292507409070e-01,-1.556068257445855085e-01,2.245596640572820879e-01
2.164399999999999835e+01,-2.733401811398080139e-01,-2.717097664219632613e-01,-1.643675312911101472e-01,2.168939891896970451e-01
2.165599999999999881e+01,-2.910965070445749592e-01,-2.518842770811394738e-01,-1.737220988933514676e-01,2.101542918917672087e-01
2.166799999999999926e+01,-3.069499646925397673e-01,-2.308022374425336976e-01,-1.835722256284270382e-01,2.043922960827078972e-01
2.167999999999999972e+01,-3.207934634695602250e-01,-2.086690931294789275e-01,-1.938146876177774536e-01,1.996477519072710483e-01
2.169200000000000017e+01,-3.325450959237992721e-01,-1.856999271532388529e-01,-2.043430723317622155e-01,1.959480261059050876e-01
2.170400000000000063e+01,-3.421488067688301382e-01,-1.621158486597559512e-01,-2.150495140651084991e-01,1.933079860547912698e-01
2.171600000000000108e+01,-3.495744638205806609e-01,-1.381404222155903916e-01,-2.258263767823630308e-01,1.917301635761056999e-01
2.172800000000000153e+01,-3.548173711058986157e-01,-1.139962469166228287e-01,-2.365678348734609748e-01,1.912051733829938927e-01
2.173999999999999844e+01,-3.578972850394433469e-01,-8.990177890669263927e-02,-2.471713109375812123e-01,1.917123520980366369e-01
2.175199999999999889e+01,-3.588570099648599743e-01,-6.606847153477037049e-02,-2.575387397400558664e-01,1.932205775537761405e-01
2.176399999999999935e+01,-3.577606590372145456e-01,-4.269828602669802076e-02,-2.675776381451610564e-01,1.956892246752497122e-01
2.177599999999999980e+01,-3.546916704336589565e-01,-1.998160381626738410e-02,-2.772019713528051654e-01,1.990692135459904699e-01
2.178800000000000026e+01,-3.497506676931947944e-01,1.904449006734490685e-03,-2.863328155105075434e-01,2.033041069663706624e-01
2.180000000000000071e+01,-3.430532473962036311e-01,2.279727318796799171e-02,-2.948988252417990008e-01,2.083312184878723938e-01
2.181200000000000117e+01,-3.347277683836737405e-01,4.254968734810266051e-02,-3.028365215091564644e-01,2.140826970380462491e-01
2.182400000000000162e+01,-3.249132053393801733e-01,6.103047432808571954e-02,-3.100904203636310474e-01,2.204865603136506869e-01
2.183599999999999852e+01,-3.137571168373139430e-01,7.812462721688420708e-02,-3.166130265224254559e-01,2.274676556221426615e-01
2.184799999999999898e+01,-3.014137648022183757e-01,9.373334466048201252e-02,-3.223647174744502797e-01,2.349485333702894807e-01
2.185999999999999943e+01,-2.880424094936855361e-01,1.077738271984943902e-01,-3.273135441384648625e-01,2.428502245962252948e-01
