Frequency, Re(SMin1Min1), Im(SMin1Min1), Re(SMax1Min1), Im(SMax1Min1)
2.000000000000000000e+01,-3.431662212064764961e-01,-5.999825128228141180e-01,-1.967644764951771708e-01,-4.206216062636194963e-02
2.001200000000000045e+01,-3.544693738694127405e-01,-5.899097533896463519e-01,-2.023748927865125780e-01,-4.425364007176957326e-02
2.002400000000000091e+01,-3.655400686473984084e-01,-5.795359838144980014e-01,-2.080733499315871038e-01,-4.630021675779821128e-02
2.003600000000000136e+01,-3.763682213367137153e-01,-5.688665325950413854e-01,-2.138561854344470936e-01,-4.819860388429408893e-02
2.004799999999999827e+01,-3.869438610736774531e-01,-5.579071080769698598e-01,-2.197196041570892433e-01,-4.994561165865574193e-02
2.005999999999999872e+01,-3.972571463675767522e-01,-5.466637962818672314e-01,-2.256596813441967275e-01,-5.153815314136933612e-02
2.007199999999999918e+01,-4.072983811018665579e-01,-5.351430579313167790e-01,-2.316723659522071932e-01,-5.297324996557915139e-02
2.008399999999999963e+01,-4.170580304530115967e-01,-5.233517246632536368e-01,-2.377534842755652800e-01,-5.424803791110765355e-02
2.009600000000000009e+01,-4.265267366795780224e-01,-5.112969944452812054e-01,-2.438987438633365423e-01,-5.535977231373243046e-02
2.010800000000000054e+01,-4.356953347272574106e-01,-4.989864261864316863e-01,-2.501037377164685438e-01,-5.630583329121250508e-02
2.012000000000000099e+01,-4.445548676052550885e-01,-4.864279335602156862e-01,-2.563639487556443886e-01,-5.708373076711076993e-02
2.013200000000000145e+01,-4.530966014783153195e-01,-4.736297780469876373e-01,-2.626747545470803913e-01,-5.769110927558473989e-02
2.014399999999999835e+01,-4.613120404297997856e-01,-4.606005612152040407e-01,-2.690314322739583153e-01,-5.812575252955313326e-02
2.015599999999999881e+01,-4.691929408447068073e-01,-4.473492162602183408e-01,-2.754291639380346268e-01,-5.838558773628100412e-02
2.016799999999999926e+01,-4.767313253666124462e-01,-4.338849988224989795e-01,-2.818630417762050255e-01,-5.846868964541056257e-02
2.017999999999999972e+01,-4.839194963820630524e-01,-4.202174771165240741e-01,-2.883280738743499994e-01,-5.837328431498911563e-02
2.019200000000000017e+01,-4.907500489888740880e-01,-4.063565213934725029e-01,-2.948191899609164390e-01,-5.809775258315591495e-02
2.020400000000000063e+01,-4.972158834071444544e-01,-3.923122927811347194e-01,-3.013312473608222297e-01,-5.764063323272478750e-02
2.021600000000000108e+01,-5.033102167900539436e-01,-3.780952315291636334e-01,-3.078590370890791905e-01,-5.700062583943612399e-02
2.022800000000000153e+01,-5.090265944030942791e-01,-3.637160447060830970e-01,-3.143972900638320467e-01,-5.617659329388341449e-02
2.023999999999999844e+01,-5.143589001305399755e-01,-3.491856933860744694e-01,-3.209406834164657552e-01,-5.516756399068785399e-02
2.025199999999999889e+01,-5.193013662827091759e-01,-3.345153793762702388e-01,-3.274838468770769895e-01,-5.397273367728800536e-02
2.026399999999999935e+01,-5.238485826758232378e-01,-3.197165315297160193e-01,-3.340213692110907684e-01,-5.259146696038936863e-02
2.027599999999999980e+01,-5.279955049555243862e-01,-3.048007916938532125e-01,-3.405478046851373453e-01,-5.102329846474816522e-02
2.028800000000000026e+01,-5.317374621491478548e-01,-2.897800003493838927e-01,-3.470576795374200052e-01,-4.926793364496958455e-02
2.030000000000000071e+01,-5.350701634241726845e-01,-2.746661819931358606e-01,-3.535454984298744274e-01,-4.732524925087854689e-02
2.031200000000000117e+01,-5.379897040429242328e-01,-2.594715303175663679e-01,-3.600057508565545072e-01,-4.519529344750675137e-02
2.032400000000000162e+01,-5.404925705031706773e-01,-2.442083932483904152e-01,-3.664329174861635230e-01,-4.287828559552824687e-02
2.033599999999999852e+01,-5.425756448577448987e-01,-2.288892578950247614e-01,-3.728214764143330529e-01,-4.037461569672428502e-02
2.034799999999999898e+01,-5.442362082161277259e-01,-2.135267354736896939e-01,-3.791659093024153937e-01,-3.768484351206559391e-02
2.035999999999999943e+01,-5.454719434254170496e-01,-1.981335462600390396e-01,-3.854607073798748118e-01,-3.480969736278988896e-02
2.037199999999999989e+01,-5.462809369441653518e-01,-1.827225046319997381e-01,-3.917003772885552793e-01,-3.175007262346331294e-02
2.038400000000000034e+01,-5.466616799138860339e-01,-1.673065042618803455e-01,-3.978794467464660811e-01,-2.850702992072377817e-02
2.039600000000000080e+01,-5.466130684492747083e-01,-1.518985035120197780e-01,-4.039924700109802091e-01,-2.508179305162712425e-02
2.040800000000000125e+01,-5.461344031637123120e-01,-1.365115110963967537e-01,-4.100340331211221323e-01,-2.147574663666088068e-02
2.042000000000000171e+01,-5.452253879528327074e-01,-1.211585720599982208e-01,-4.159987589000854746e-01,-1.769043352425345508e-02
2.043199999999999861e+01,-5.438861280649391894e-01,-1.058527541351719781e-01,-4.218813116999107771e-01,-1.372755196588892022e-02
2.044399999999999906e+01,-5.421171274881438906e-01,-9.060713452319010819e-02,-4.276764018721317950e-01,-9.588952580463931674e-03
2.045599999999999952e+01,-5.399192856877986779e-01,-7.543478715862704520e-02,-4.333787899485761486e-01,-5.276635129729707017e-03
2.046799999999999997e+01,-5.372938937321640740e-01,-6.034877050263361825e-02,-4.389832905177317723e-01,-7.927451257883301374e-04
2.048000000000000043e+01,-5.342426298455877909e-01,-4.536211591370438445e-02,-4.444847757845475922e-01,3.860429705245975625e-03
2.049200000000000088e+01,-5.307675544322868477e-01,-3.048781664194353050e-02,-4.498781788019233785e-01,8.680463079895390024e-03
2.050400000000000134e+01,-5.268711046168157441e-01,-1.573881749051336126e-02,-4.551584963639125903e-01,1.366479390910424301e-02
2.051599999999999824e+01,-5.225560883452265992e-01,-1.128005182144320093e-03,-4.603207915521562166e-01,1.881073011912368087e-02
2.052799999999999869e+01,-5.178256780991149499e-01,1.333180052966165957e-02,-4.653601959289156431e-01,2.411545251463438275e-02
2.053999999999999915e+01,-5.126834042689494275e-01,2.762785497115141653e-02,-4.702719113711765209e-01,2.957601865692855575e-02
2.055199999999999960e+01,-5.071331482389322964e-01,4.174749585075880620e-02,-4.750512115422315107e-01,3.518936672857538722e-02
2.056400000000000006e+01,-5.011791352325508653e-01,5.567814972654067801e-02,-4.796934429986543513e-01,4.095231935594934036e-02
2.057600000000000051e+01,-4.948259269686125505e-01,6.940733761586316553e-02,-4.841940259323597728e-01,4.686158736000927555e-02
2.058800000000000097e+01,-4.880784141774061613e-01,8.292267973149938798e-02,-4.885484545489898744e-01,5.291377340510298316e-02
2.060000000000000142e+01,-4.809418090230517251e-01,9.621189933304094555e-02,-4.927522970856704210e-01,5.910537551531267614e-02
2.061199999999999832e+01,-4.734216374777358571e-01,1.092628256908447365e-01,-4.968011954728888679e-01,6.543279042676546087e-02
2.062399999999999878e+01,-4.655237316904209943e-01,1.220633961684659125e-01,-5.006908646469641067e-01,7.189231674403273598e-02
2.063599999999999923e+01,-4.572542223906909675e-01,1.346016574409833466e-01,-5.044170915214504225e-01,7.848015786792686410e-02
2.064799999999999969e+01,-4.486195313653457695e-01,1.468657658806893640e-01,-5.079757336274445256e-01,8.519242466121791646e-02
2.066000000000000014e+01,-4.396263640465507549e-01,1.588439871585477225e-01,-5.113627174347734616e-01,9.202513781809069926e-02
2.067200000000000060e+01,-4.302817022495574184e-01,1.705246951304173197e-01,-5.145740363677253626e-01,9.897422990211633687e-02
2.068400000000000105e+01,-4.205927971048307734e-01,1.818963701029790991e-01,-5.176057485310248119e-01,1.060355470164084657e-01
2.069600000000000151e+01,-4.105671622406483756e-01,1.929475966027378864e-01,-5.204539741634336414e-01,1.132048500688741105e-01
2.070799999999999841e+01,-4.002125672896196806e-01,2.036670608062541021e-01,-5.231148928383826391e-01,1.204778155931575945e-01
2.071999999999999886e+01,-3.895370318277852073e-01,2.140435478203297492e-01,-5.255847404330893369e-01,1.278500360857830753e-01
2.073199999999999932e+01,-3.785488198986654007e-01,2.240659390461003098e-01,-5.278598058891992295e-01,1.353170198168325011e-01
2.074399999999999977e+01,-3.672564353416224447e-01,2.337232098739586705e-01,-5.299364277902675058e-01,1.428741900707775903e-01
2.075600000000000023e+01,-3.556686182334192203e-01,2.430044279873422586e-01,-5.318109907830066430e-01,1.505168837716873986e-01
2.076800000000000068e+01,-3.437943428562163506e-01,2.518987525303724717e-01,-5.334799218712424906e-01,1.582403494446402714e-01
2.078000000000000114e+01,-3.316428177381345321e-01,2.603954343520124004e-01,-5.349396866138315110e-01,1.660397444636219355e-01
2.079200000000000159e+01,-3.192234884341005330e-01,2.684838174336558470e-01,-5.361867852584254468e-01,1.739101315334402598e-01
2.080399999999999849e+01,-3.065460438403909138e-01,2.761533414351161064e-01,-5.372177488465358364e-01,1.818464743516679805e-01
2.081599999999999895e+01,-2.936204268868313760e-01,2.833935450508066056e-01,-5.380291353262772747e-01,1.898436323943584469e-01
2.082799999999999940e+01,-2.804568504366153348e-01,2.901940695574797280e-01,-5.386175257115121129e-01,1.978963547678190271e-01
2.083999999999999986e+01,-2.670658190483676808e-01,2.965446615919708484e-01,-5.389795203290742576e-01,2.059992730685087925e-01
2.085200000000000031e+01,-2.534581569188879002e-01,3.024351738879139107e-01,-5.391117351985906803e-01,2.141468931918069640e-01
2.086400000000000077e+01,-2.396450418081437772e-01,3.078555624977257765e-01,-5.390107985935330692e-01,2.223335860313514489e-01
2.087600000000000122e+01,-2.256380440773454732e-01,3.127958790588303284e-01,-5.386733478369711836e-01,2.305535770130411055e-01
2.088800000000000168e+01,-2.114491692764147168e-01,3.172462569944100030e-01,-5.380960263925645970e-01,2.388009344089478125e-01
2.089999999999999858e+01,-1.970909021256378735e-01,3.211968912184468006e-01,-5.372754813198812318e-01,2.470695563811486639e-01
2.091199999999999903e+01,-1.825762494519403700e-01,3.246380118910983659e-01,-5.362083611743537759e-01,2.553531567092109933e-01
2.092399999999999949e+01,-1.679187797961778084e-01,3.275598538756228639e-01,-5.348913144465998748e-01,2.636452491611590565e-01
2.093599999999999994e+01,-1.531326580734692910e-01,3.299526245584983863e-01,-5.333209886533045729e-01,2.719391304721123781e-01
2.094800000000000040e+01,-1.382326747421968871e-01,3.318064733458644944e-01,-5.314940302131152539e-01,2.802278619019697437e-01
2.096000000000000085e+01,-1.232342702206252333e-01,3.331114662704923735e-01,-5.294070852660466286e-01,2.885042493462681157e-01
2.097200000000000131e+01,-1.081535564745329941e-01,3.338575686856781188e-01,-5.270568016231539366e-01,2.967608219806970316e-01
2.098400000000000176e+01,-9.300733853321443978e-02,3.340346381078030391e-01,-5.244398320645643485e-01,3.049898094201038967e-01
2.099599999999999866e+01,-7.781313898769813553e-02,3.336324281430358973e-01,-5.215528392383915746e-01,3.131831173758929387e-01
2.100799999999999912e+01,-6.258922829639597396e-02,3.326406033613897306e-01,-5.183925024474350662e-01,3.213323017947401494e-01
2.101999999999999957e+01,-4.735466307362622834e-02,3.310487642006660347e-01,-5.149555266473823112e-01,3.294285414622864505e-01
2.103200000000000003e+01,-3.212933367790271610e-02,3.288464806008243313e-01,-5.112386540152042969e-01,3.374626090557833469e-01
2.104400000000000048e+01,-1.693402154788893957e-02,3.260233330899862114e-01,-5.072386784815307026e-01,3.454248406337362409e-01
2.105600000000000094e+01,-1.790466009368212909e-03,3.225689603745111045e-01,-5.029524636539964844e-01,3.533051035584756083e-01
2.106800000000000139e+01,1.327856023103332096e-02,3.184731130014044065e-01,-4.983769645908612822e-01,3.610927628630804520e-01
2.107999999999999829e+01,2.824916797353388756e-02,3.137257132360001255e-01,-4.935092539157182601e-01,3.687766460985750228e-01
2.109199999999999875e+01,4.309626196919041918e-02,3.083169218387897259e-01,-4.883465527956800112e-01,3.763450067334800364e-01
2.110399999999999920e+01,5.779344608743725714e-02,3.022372128815005721e-01,-4.828862673378405690e-01,3.837854862272951917e-01
2.111599999999999966e+01,7.231292431960296974e-02,2.954774580938472339e-01,-4.771260309929311050e-01,3.910850749643018376e-01
2.112800000000000011e+01,8.662539868266047605e-02,2.880290224883632622e-01,-4.710637535913594354e-01,3.982300723151257493e-01
2.114000000000000057e+01,1.006999650800873281e-01,2.798838731875997743e-01,-4.646976776748528160e-01,4.052060461921804801e-01
2.115200000000000102e+01,1.145040082364040257e-01,2.710347034977196867e-01,-4.580264428259418485e-01,4.119977925821518561e-01
2.116400000000000148e+01,1.280030969581852918e-01,2.614750743532718302e-01,-4.510491587355532350e-01,4.185892956755229988e-01
2.117599999999999838e+01,1.411608811876958192e-01,2.511995753122976960e-01,-4.437654877830386480e-01,4.249636893703632734e-01
2.118799999999999883e+01,1.539389926140578013e-01,2.402040073107532814e-01,-4.361757379291952841e-01,4.311032211066869180e-01
2.119999999999999929e+01,1.662969509795816925e-01,2.284855893954398087e-01,-4.282809667358912775e-01,4.369892191908364421e-01
2.121199999999999974e+01,1.781920786744257967e-01,2.160431916306364553e-01,-4.200830973198041440e-01,4.426020649967193354e-01
2.122400000000000020e+01,1.895794267424103230e-01,2.028775963095763302e-01,-4.115850470150818063e-01,4.479211716849222924e-01
2.123600000000000065e+01,2.004117160286048860e-01,1.889917894781687202e-01,-4.027908694519547472e-01,4.529249713621028572e-01
2.124800000000000111e+01,2.106392978810119887e-01,1.743912845745910212e-01,-3.937059106449650181e-01,4.575909129112610829e-01
2.126000000000000156e+01,2.202101395709340492e-01,1.590844796821686835e-01,-3.843369795156976743e-01,4.618954730574164613e-01
2.127199999999999847e+01,2.290698404150237344e-01,1.430830494538544717e-01,-3.746925330364892504e-01,4.658141835897701144e-01
2.128399999999999892e+01,2.371616854504603467e-01,1.264023721645892162e-01,-3.647828758607889466e-01,4.693216780329373949e-01
2.129599999999999937e+01,2.444267444210151130e-01,1.090619915483528601e-01,-3.546203738877558576e-01,4.723917614386000108e-01
2.130799999999999983e+01,2.508040247434334957e-01,9.108611204141942030e-02,-3.442196806766775752e-01,4.749975073390975133e-01
2.132000000000000028e+01,2.562306880081644533e-01,7.250412474547988928e-02,-3.335979749666311278e-01,4.771113862478609802e-01
2.133200000000000074e+01,2.606423403718193255e-01,5.335115980590298540e-02,-3.227752067528076863e-01,4.787054303819409662e-01
2.134400000000000119e+01,2.639734078571056575e-01,3.366865893783652780e-02,-3.117743484116609065e-01,4.797514394865923792e-01
2.135600000000000165e+01,2.661576080049429804e-01,1.350495950022837649e-02,-3.006216462444712967e-01,4.802212327203738695e-01
2.136799999999999855e+01,2.671285294211449002e-01,-7.084121197719587745e-03,-2.893468665226670011e-01,4.800869514623544165e-01
2.137999999999999901e+01,2.668203304047227498e-01,-2.803471576602012752e-02,-2.779835286774213210e-01,4.793214175738617078e-01
2.139199999999999946e+01,2.651685668967475040e-01,-4.927436862350841051e-02,-2.665691167041937537e-01,4.778985510214679988e-01
2.140399999999999991e+01,2.621111582934677053e-01,-7.072155146163627837e-02,-2.551452581905255257e-01,4.757938497763008479e-01
2.141600000000000037e+01,2.575894970620227209e-01,-9.228525770315854082e-02,-2.437578586864319052e-01,4.729849334765817703e-01
2.142800000000000082e+01,2.515497044216712941e-01,-1.138647052285941957e-01,-2.324571775100885418e-01,4.694521504088424169e-01
2.144000000000000128e+01,2.439440294648094754e-01,-1.353491802435506375e-01,-2.212978296364809805e-01,4.651792448734217711e-01
2.145199999999999818e+01,2.347323828849667282e-01,-1.566180582015558320e-01,-2.103386972035239388e-01,4.601540789179618396e-01
2.146399999999999864e+01,2.238839889119394189e-01,-1.775410398020293712e-01,-1.996427335686473403e-01,4.543693987485473151e-01
2.147599999999999909e+01,2.113791301772039999e-01,-1.979786408101285589e-01,-1.892766429647565474e-01,4.478236319085653894e-01
2.148799999999999955e+01,1.972109502226969957e-01,-2.177829733081059205e-01,-1.793104198572186836e-01,4.405216966586897875e-01
2.150000000000000000e+01,1.813872675537878398e-01,-2.367988524846364740e-01,-1.698167343127701956e-01,4.324758000797471746e-01
2.151200000000000045e+01,1.639323440376003194e-01,-2.548652567298793636e-01,-1.608701532506910947e-01,4.237061965202668090e-01
2.152400000000000091e+01,1.448885397687924292e-01,-2.718171592516716029e-01,-1.525461924981726947e-01,4.142418734756442844e-01
2.153600000000000136e+01,1.243177771652146518e-01,-2.874877364504915822e-01,-1.449202011676933022e-01,4.041211282500167257e-01
2.154800000000000182e+01,1.023027300702906012e-01,-3.017109419217046673e-01,-1.380660879440341882e-01,3.933919963103663098e-01
2.155999999999999872e+01,7.894765017421230546e-02,-3.143244155516771166e-01,-1.320549081832819160e-01,3.821124916159091001e-01
2.157199999999999918e+01,5.437874425977232140e-02,-3.251726754851710921e-01,-1.269533408758183324e-01,3.703506208915466336e-01
2.158399999999999963e+01,2.874402262629327520e-02,-3.341105179274567738e-01,-1.228220949105587184e-01,3.581841382198696078e-01
2.159600000000000009e+01,2.212552242947299005e-03,-3.410065273707043043e-01,-1.197142939258735439e-01,3.457000136981128180e-01
2.160800000000000054e+01,-2.502693203278840567e-02,-3.457465797872690816e-01,-1.176738974431257440e-01,3.329936002575927811e-01
2.162000000000000099e+01,-5.276807883183629727e-02,-3.482372056806029570e-01,-1.167342219978664553e-01,3.201674957928304366e-01
2.163200000000000145e+01,-8.078962374549891745e-02,-3.484086706640607267e-01,-1.169166287079692751e-01,3.073301128894427303e-01
2.164399999999999835e+01,-1.088586998516025417e-01,-3.462176302072956235e-01,-1.182294424134156946e-01,2.945939847470570028e-01
2.165599999999999881e+01,-1.367346747371431248e-01,-3.416492235557462842e-01,-1.206671617458526385e-01,2.820738521713879732e-01
2.166799999999999926e+01,-1.641733998108297898e-01,-3.347184900144710706e-01,-1.242100091869543232e-01,2.698845913990551293e-01
2.167999999999999972e+01,-1.909317289181258204e-01,-3.254710182629808601e-01,-1.288238557582221944e-01,2.581390546353397042e-01
2.169200000000000017e+01,-2.167721421613212351e-01,-3.139827746037133771e-01,-1.344605373163559325e-01,2.469459032916980767e-01
2.170400000000000063e+01,-2.414672996379835790e-01,-3.003590965987991135e-01,-1.410585597739995589e-01,2.364075170737596487e-01
2.171600000000000108e+01,-2.648043499184799532e-01,-2.847328812889544092e-01,-1.485441704685295516e-01,2.266180598095061949e-01
2.172800000000000153e+01,-2.865888297793289241e-01,-2.672620386418917415e-01,-1.568327540092185335e-01,2.176617752621157198e-01
2.173999999999999844e+01,-3.066480141299199880e-01,-2.481263176351991562e-01,-1.658304948040005278e-01,2.096115737283422431e-01
2.175199999999999889e+01,-3.248336062901236443e-01,-2.275236414975582988e-01,-1.754362363847811468e-01,2.025279540364362807e-01
2.176399999999999935e+01,-3.410236960446079157e-01,-2.056661079816066717e-01,-1.855434604731518999e-01,1.964582870329182884e-01
2.177599999999999980e+01,-3.551239529905514392e-01,-1.827758190186482279e-01,-1.960423068084463372e-01,1.914364673567122699e-01
2.178800000000000026e+01,-3.670680622991448483e-01,-1.590807017108777366e-01,-2.068215579249326752e-01,1.874829217982168783e-01
2.180000000000000071e+01,-3.768174461183205759e-01,-1.348104703710151786e-01,-2.177705206804823324e-01,1.846049461912057377e-01
2.181200000000000117e+01,-3.843603440440973018e-01,-1.101928590575741718e-01,-2.287807474169930022e-01,1.827973296234996492e-01
2.182400000000000162e+01,-3.897103487769305041e-01,-8.545022813541250373e-02,-2.397475529843653141e-01,1.820432154119421553e-01
2.183599999999999852e+01,-3.929045075130125908e-01,-6.079661937909436320e-02,-2.505712982398467514e-01,1.823151429836398496e-01
2.184799999999999898e+01,-3.940011058835836688e-01,-3.643530450425951778e-02,-2.611584248880766679e-01,1.835762133727534828e-01
2.185999999999999943e+01,-3.930772501064245250e-01,-1.255684389909274452e-02,-2.714222396869145348e-01,1.857813230130934690e-01
