Frequency, Re(SMin1Min1), Im(SMin1Min1), Re(SMax1Min1), Im(SMax1Min1)
2.000000000000000000e+01,-4.289138702234890910e-01,3.582230493399068266e-02,-5.218996738856486184e-01,2.313050824959163657e-02
2.001200000000000045e+01,-4.222023678920945877e-01,5.057482297557830409e-02,-5.267441475736437395e-01,3.001708499652407450e-02
2.002400000000000091e+01,-4.150313612138581965e-01,6.505939464253565618e-02,-5.313917381624662095e-01,3.705916444611055682e-02
2.003600000000000136e+01,-4.074109143668711019e-01,7.926069037785221649e-02,-5.358376142425207433e-01,4.424999891883622111e-02
2.004799999999999827e+01,-3.993515878300301636e-01,9.316384910672897979e-02,-5.400772239936284524e-01,5.158272020873158614e-02
2.005999999999999872e+01,-3.908644098832200209e-01,1.067544913169233139e-01,-5.441062949252739589e-01,5.905035407016914761e-02
2.007199999999999918e+01,-3.819608481055390969e-01,1.200187301131157985e-01,-5.479208327378102261e-01,6.664583429278574112e-02
2.008399999999999963e+01,-3.726527810201934465e-01,1.329431802952013020e-01,-5.515171193561019258e-01,7.436201630989487665e-02
2.009600000000000009e+01,-3.629524700272223625e-01,1.455149655206415538e-01,-5.548917101899303317e-01,8.219169029106036806e-02
2.010800000000000054e+01,-3.528725317570284847e-01,1.577217236205247508e-01,-5.580414306778871403e-01,9.012759367499402485e-02
2.012000000000000099e+01,-3.424259109690353520e-01,1.695516101473967807e-01,-5.609633721732864009e-01,9.816242310437031660e-02
2.013200000000000145e+01,-3.316258541107369728e-01,1.809933002404049418e-01,-5.636548872319564474e-01,1.062888457295572825e-01
2.014399999999999835e+01,-3.204858836430665714e-01,1.920359888997750786e-01,-5.661135843626050601e-01,1.144995098535690897e-01
2.015599999999999881e+01,-3.090197732284536425e-01,2.026693897682031176e-01,-5.683373223008391095e-01,1.227870548957396557e-01
2.016799999999999926e+01,-2.972415238683898675e-01,2.128837325212648290e-01,-5.703242038678791870e-01,1.311441206565727713e-01
2.017999999999999972e+01,-2.851653410675889511e-01,2.226697589727616167e-01,-5.720725694746079393e-01,1.395633558711173450e-01
2.019200000000000017e+01,-2.728056130923947609e-01,2.320187180036448471e-01,-5.735809903308158875e-01,1.480374260427129163e-01
2.020400000000000063e+01,-2.601768903816384926e-01,2.409223594252619949e-01,-5.748482614184416972e-01,1.565590205533362311e-01
2.021600000000000108e+01,-2.472938661589926257e-01,2.493729268889240958e-01,-5.758733942862701571e-01,1.651208590508391472e-01
2.022800000000000153e+01,-2.341713582869694166e-01,2.573631499543843626e-01,-5.766556097219750487e-01,1.737156971171682773e-01
2.023999999999999844e+01,-2.208242923941309277e-01,2.648862354297618626e-01,-5.771943303556290594e-01,1.823363312251787549e-01
2.025199999999999889e+01,-2.072676862988273305e-01,2.719358580948423865e-01,-5.774891732468945271e-01,1.909756029949108702e-01
2.026399999999999935e+01,-1.935166357450277819e-01,2.785061509185174367e-01,-5.775399425060380176e-01,1.996264027631060867e-01
2.027599999999999980e+01,-1.795863014582352590e-01,2.845916948796261559e-01,-5.773466219968128588e-01,2.082816724825120591e-01
2.028800000000000026e+01,-1.654918975226133404e-01,2.901875084984490427e-01,-5.769093681670334206e-01,2.169344079698583283e-01
2.030000000000000071e+01,-1.512486810737875276e-01,2.952890371838747807e-01,-5.762285030504603611e-01,2.255776605235970123e-01
2.031200000000000117e+01,-1.368719432956617965e-01,2.998921424987350259e-01,-5.753045074813899484e-01,2.342045379344104838e-01
2.032400000000000162e+01,-1.223770017038567776e-01,3.039930914430744036e-01,-5.741380145611338914e-01,2.428082049131822795e-01
2.033599999999999852e+01,-1.077791936930609096e-01,3.075885458522606974e-01,-5.727298034134237215e-01,2.513818829626106588e-01
2.034799999999999898e+01,-9.309387132062436898e-02,3.106755520038798624e-01,-5.710807932636623452e-01,2.599188497199624304e-01
2.035999999999999943e+01,-7.833639729425417864e-02,3.132515305243264159e-01,-5.691920378749482090e-01,2.684124377995313893e-01
2.037199999999999989e+01,-6.352214212729914711e-02,3.153142666830102692e-01,-5.670647203718361951e-01,2.768560331644400740e-01
2.038400000000000034e+01,-4.866648242135290792e-02,3.168619011590853018e-01,-5.647001484809939242e-01,2.852430730581813623e-01
2.039600000000000080e+01,-3.378480023218097261e-02,3.178929213626754957e-01,-5.620997502161868553e-01,2.935670435271008905e-01
2.040800000000000125e+01,-1.889248347161403413e-02,3.184061533897542540e-01,-5.592650700334161895e-01,3.018214765656679899e-01
2.042000000000000171e+01,-4.004927294854935746e-03,3.184007546870966654e-01,-5.561977654805595472e-01,3.099999469170005573e-01
2.043199999999999861e+01,1.086246358038253298e-02,3.178762075011369870e-01,-5.528996043644947012e-01,3.180960685616686101e-01
2.044399999999999906e+01,2.569427167942939239e-02,3.168323131821323413e-01,-5.493724624574450877e-01,3.261034909283915817e-01
2.045599999999999952e+01,4.047506276018911914e-02,3.152691874127487304e-01,-5.456183217631660476e-01,3.340158948607554468e-01
2.046799999999999997e+01,5.518938104888351792e-02,3.131872564280644422e-01,-5.416392693625527999e-01,3.418269883747656057e-01
2.048000000000000043e+01,6.982174378694176731e-02,3.105872542920315449e-01,-5.374374968573616407e-01,3.495305022426235531e-01
2.049200000000000088e+01,8.435663515694914738e-02,3.074702212936422652e-01,-5.330153004299011954e-01,3.571201854388960095e-01
2.050400000000000134e+01,9.877849965855076131e-02,3.038375035243833788e-01,-5.283750815358136954e-01,3.645898004860559927e-01
2.051599999999999824e+01,1.130717350083754319e-01,2.996907536970521146e-01,-5.235193482463961212e-01,3.719331187373124958e-01
2.052799999999999869e+01,1.272206846414472570e-01,2.950319332645793269e-01,-5.184507172562846655e-01,3.791439156357471196e-01
2.053999999999999915e+01,1.412096298950906714e-01,2.898633158962081180e-01,-5.131719165717605335e-01,3.862159659899466191e-01
2.055199999999999960e+01,1.550227819604044766e-01,2.841874923670616448e-01,-5.076857888943260289e-01,3.931430393078111374e-01
2.056400000000000006e+01,1.686442736904993911e-01,2.780073769159127073e-01,-5.019952957136522009e-01,3.999188952317165868e-01
2.057600000000000051e+01,1.820581513594282941e-01,2.713262151246640386e-01,-4.961035221233621728e-01,4.065372791200577152e-01
2.058800000000000097e+01,1.952483664707926336e-01,2.641475933716878055e-01,-4.900136823724449697e-01,4.129919178221821419e-01
2.060000000000000142e+01,2.081987677205520415e-01,2.564754499096855711e-01,-4.837291261643184570e-01,4.192765156959730177e-01
2.061199999999999832e+01,2.208930932246144785e-01,2.483140876170330802e-01,-4.772533457146737046e-01,4.253847509198124266e-01
2.062399999999999878e+01,2.333149631283988612e-01,2.396681884696094667e-01,-4.705899835781587326e-01,4.313102721534048944e-01
2.063599999999999923e+01,2.454478727226445944e-01,2.305428297778585878e-01,-4.637428412527527799e-01,4.370466956048874585e-01
2.064799999999999969e+01,2.572751861976323440e-01,2.209435022310181629e-01,-4.567158885691202652e-01,4.425876025649702616e-01
2.066000000000000014e+01,2.687801311762280654e-01,2.108761297872845386e-01,-4.495132738705165942e-01,4.479265374723125359e-01
2.067200000000000060e+01,2.799457941752513390e-01,2.003470914447534612e-01,-4.421393349866756806e-01,4.530570065781450162e-01
2.068400000000000105e+01,2.907551171543059643e-01,1.893632449233766946e-01,-4.345986110026157645e-01,4.579724772821912593e-01
2.069600000000000151e+01,3.011908953215055584e-01,1.779319522826919853e-01,-4.268958548203619641e-01,4.626663782162189209e-01
2.070799999999999841e+01,3.112357763764644347e-01,1.660611074936195475e-01,-4.190360465081515717e-01,4.671321001560843622e-01
2.071999999999999886e+01,3.208722613824847580e-01,1.537591659749882600e-01,-4.110244074276609427e-01,4.713629978478698357e-01
2.073199999999999932e+01,3.300827074719310805e-01,1.410351760966415957e-01,-4.028664151252248082e-01,4.753523928386096942e-01
2.074399999999999977e+01,3.388493326015278861e-01,1.278988126405155301e-01,-3.945678189675976277e-01,4.790935774072296316e-01
2.075600000000000023e+01,3.471542225873192056e-01,1.143604121992510131e-01,-3.861346564967992889e-01,4.825798196964427578e-01
2.076800000000000068e+01,3.549793406625561532e-01,1.004310104780922336e-01,-3.775732704716004418e-01,4.858043701516212565e-01
2.078000000000000114e+01,3.623065398154809991e-01,8.612238145011330559e-02,-3.688903265553510336e-01,4.887604693778785925e-01
2.079200000000000159e+01,3.691175781778275322e-01,7.144707829692230339e-02,-3.600928316010114094e-01,4.914413575317368998e-01
2.080399999999999849e+01,3.753941377486484376e-01,5.641847604672395322e-02,-3.511881524743050709e-01,4.938402853687258176e-01
2.081599999999999895e+01,3.811178467516396773e-01,4.105081579875192316e-02,-3.421840353448346028e-01,4.959505270729600013e-01
2.082799999999999940e+01,3.862703059371760950e-01,2.535925039757508728e-02,-3.330886253627390325e-01,4.977653949990270554e-01
2.083999999999999986e+01,3.908331191526547843e-01,9.359891392054542000e-03,-3.239104866248113668e-01,4.992782564603167605e-01
2.085200000000000031e+01,3.947879285159461293e-01,-6.930142917833193375e-03,-3.146586223191344955e-01,5.004825527009868491e-01
2.086400000000000077e+01,3.981164545366476237e-01,-2.349267857821881952e-02,-3.053424949209001538e-01,5.013718201910277728e-01
2.087600000000000122e+01,4.008005415378548264e-01,-4.030843649300777654e-02,-2.959720462943087327e-01,5.019397143850748977e-01
2.088800000000000168e+01,4.028222087369420779e-01,-5.735698266251001987e-02,-2.865577175361816997e-01,5.021800360855824819e-01
2.089999999999999858e+01,4.041637073468503094e-01,-7.461667850736292129e-02,-2.771104683761892451e-01,5.020867605494464536e-01
2.091199999999999903e+01,4.048075840590744656e-01,-9.206463168568111699e-02,-2.676417959263686086e-01,5.016540694739111128e-01
2.092399999999999949e+01,4.047367512653170518e-01,-1.096766478645856968e-01,-2.581637525490456109e-01,5.008763859923659467e-01
2.093599999999999994e+01,4.039345643660006147e-01,-1.274271839644665893e-01,-2.486889625871877563e-01,4.997484128031258743e-01
2.094800000000000040e+01,4.023849064997834235e-01,-1.452893034547430573e-01,-2.392306376750866770e-01,4.982651735442061858e-01
2.096000000000000085e+01,4.000722810082040781e-01,-1.632346343439466940e-01,-2.298025903198662734e-01,4.964220575141476965e-01
2.097200000000000131e+01,3.969819119228021331e-01,-1.812333305739151357e-01,-2.204192454160776027e-01,4.942148678228129310e-01
2.098400000000000176e+01,3.930998527277446697e-01,-1.992540375975370148e-01,-2.110956493266888112e-01,4.916398730364108793e-01
2.099599999999999866e+01,3.884131036083388056e-01,-2.172638629912485297e-01,-2.018474761344342949e-01,4.886938623575457497e-01
2.100799999999999912e+01,3.829097373440076280e-01,-2.352283530267584577e-01,-1.926910306380515137e-01,4.853742043534857165e-01
2.101999999999999957e+01,3.765790339426491329e-01,-2.531114762002906748e-01,-1.836432476389041890e-01,4.816789092138875628e-01
2.103200000000000003e+01,3.694116240409103247e-01,-2.708756147915312162e-01,-1.747216870350763729e-01,4.776066944825376193e-01
2.104400000000000048e+01,3.613996410113171076e-01,-2.884815655967017389e-01,-1.659445242130745679e-01,4.731570541662070695e-01
2.105600000000000094e+01,3.525368816216432610e-01,-3.058885510502586946e-01,-1.573305352019908898e-01,4.683303310771740335e-01
2.106800000000000139e+01,3.428189749840238054e-01,-3.230542420158596939e-01,-1.488990760321910745e-01,4.631277922143275383e-01
2.107999999999999829e+01,3.322435594107495116e-01,-3.399347935882097160e-01,-1.406700557208115931e-01,4.575517069309453788e-01
2.109199999999999875e+01,3.208104666602399901e-01,-3.564848953016885869e-01,-1.326639022902473541e-01,4.516054275753118019e-01
2.110399999999999920e+01,3.085219129105247760e-01,-3.726578371874884055e-01,-1.249015212141023901e-01,4.452934722234566101e-01
2.111599999999999966e+01,2.953826956386070290e-01,-3.884055931572076847e-01,-1.174042456782087990e-01,4.386216090515560606e-01
2.112800000000000011e+01,2.814003954131947260e-01,-4.036789232152188656e-01,-1.101937780431932190e-01,4.315969418194601781e-01
2.114000000000000057e+01,2.665855814257167555e-01,-4.184274960137846500e-01,-1.032921218999170859e-01,4.242279958565434717e-01
2.115200000000000102e+01,2.509520193913526986e-01,-4.326000332620661415e-01,-9.672150412059536684e-02,4.165248038572396672e-01
2.116400000000000148e+01,2.345168802489360771e-01,-4.461444774818468795e-01,-9.050428632674439866e-02,4.084989907066206016e-01
2.117599999999999838e+01,2.173009478770972780e-01,-4.590081845680599182e-01,-8.466286522054992936e-02,4.001638564667173159e-01
2.118799999999999883e+01,1.993288238249759925e-01,-4.711381425605055129e-01,-7.921956125876809807e-02,3.915344565623985473e-01
2.119999999999999929e+01,1.806291268303870934e-01,-4.824812179641835286e-01,-7.419649518780874198e-02,3.826276781119054560e-01
2.121199999999999974e+01,1.612346846667307709e-01,-4.929844308699699584e-01,-6.961545200470266315e-02,3.734623112515418897e-01
2.122400000000000020e+01,1.411827156230708868e-01,-5.025952600250751523e-01,-6.549773196095978745e-02,3.640591142066834096e-01
2.123600000000000065e+01,1.205149966785259014e-01,-5.112619788852970082e-01,-6.186398828405920147e-02,3.544408707613145304e-01
2.124800000000000111e+01,9.927801518134971026e-02,-5.189340235494404041e-01,-5.873405135395624865e-02,3.446324386748733093e-01
2.126000000000000156e+01,7.752310058188317810e-02,-5.255623933317221663e-01,-5.612673913894932615e-02,3.346607874863605225e-01
2.127199999999999847e+01,5.530653249253936893e-02,-5.311000845714419771e-01,-5.405965376621878898e-02,3.245550240289662991e-01
2.128399999999999892e+01,3.268962105069635193e-02,-5.355025581108676658e-01,-5.254896417757517341e-02,3.143464038502410962e-01
2.129599999999999937e+01,9.738755233381971715e-03,-5.387282406907231147e-01,-5.160917490153239112e-02,3.040683265886186537e-01
2.130799999999999983e+01,-1.347458559581746901e-02,-5.407390603145773023e-01,-5.125288106109448377e-02,2.937563131908760838e-01
2.132000000000000028e+01,-3.687386205009059864e-02,-5.415010154114618945e-01,-5.149050983692730205e-02,2.834479626603583768e-01
2.133200000000000074e+01,-6.037755262999498773e-02,-5.409847773687558314e-01,-5.233004872457934498e-02,2.731828857942252275e-01
2.134400000000000119e+01,-8.389928540245042421e-02,-5.391663256961515271e-01,-5.377676107229926311e-02,2.630026130911967686e-01
2.135600000000000165e+01,-1.073480303629026633e-01,-5.360276146896155725e-01,-5.583288957719594742e-02,2.529504736803452891e-01
2.136799999999999855e+01,-1.306283602178691661e-01,-5.315572699537969292e-01,-5.849734867183221249e-02,2.430714417282476281e-01
2.137999999999999901e+01,-1.536407882929964608e-01,-5.257513124610256883e-01,-6.176540707720422352e-02,2.334119463200887978e-01
2.139199999999999946e+01,-1.762821933950893261e-01,-5.186139069075480501e-01,-6.562836226544940810e-02,2.240196402778620033e-01
2.140399999999999991e+01,-1.984463427345154185e-01,-5.101581298867251535e-01,-7.007320920934320685e-02,2.149431227796216870e-01
2.141600000000000037e+01,-2.200245254260600469e-01,-5.004067517281903799e-01,-7.508230664764135864e-02,2.062316099924434987e-01
2.142800000000000082e+01,-2.409063105845740405e-01,-4.893930236233230979e-01,-8.063304522704867194e-02,1.979345472568947162e-01
2.144000000000000128e+01,-2.609804455280920199e-01,-4.771614587233278248e-01,-8.669752336239887336e-02,1.901011557121138340e-01
2.145199999999999818e+01,-2.801359109531156855e-01,-4.637685920940639028e-01,-9.324223856103314167e-02,1.827799057048806464e-01
2.146399999999999864e+01,-2.982631509398391279e-01,-4.492836995743005879e-01,-1.002278043591932899e-01,1.760179089959496013e-01
2.147599999999999909e+01,-3.152554959734170104e-01,-4.337894495571979481e-01,-1.076087059811420832e-01,1.698602218193451530e-01
2.148799999999999955e+01,-3.310107964158067184e-01,-4.173824543848029811e-01,-1.153331113948707215e-01,1.643490514745200581e-01
2.150000000000000000e+01,-3.454332814891835080e-01,-4.001736793813599480e-01,-1.233427585949354727e-01,1.595228606054856779e-01
2.151200000000000045e+01,-3.584356541632399695e-01,-3.822886576600018627e-01,-1.315729446130809999e-01,1.554153659726572601e-01
2.152400000000000091e+01,-3.699414245773613996e-01,-3.638674480392245503e-01,-1.399526467503742488e-01,1.520544327320183797e-01
2.153600000000000136e+01,-3.798874728921677879e-01,-3.450642623229012718e-01,-1.484048114973254284e-01,1.494608714115940595e-01
2.154800000000000182e+01,-3.882268158629355592e-01,-3.260466778558100409e-01,-1.568468510183478881e-01,1.476471533134242620e-01
2.155999999999999872e+01,-3.949315291971869368e-01,-3.069943431903295328e-01,-1.651913901398666396e-01,1.466160712823977863e-01
2.157199999999999918e+01,-3.999957494696226856e-01,-2.880970809822588907e-01,-1.733473074463496300e-01,1.463593867950797600e-01
2.158399999999999963e+01,-4.034386452025906511e-01,-2.695522955417671285e-01,-1.812211110467726594e-01,1.468565209271246452e-01
2.159600000000000009e+01,-4.053072078252260568e-01,-2.515616059306477470e-01,-1.887186813289045417e-01,1.480733652550555168e-01
2.160800000000000054e+01,-4.056786720881899178e-01,-2.343266524358657843e-01,-1.957473980414955184e-01,1.499613077611552936e-01
2.162000000000000099e+01,-4.046623363053960531e-01,-2.180440676532798827e-01,-2.022186460428672117e-01,1.524565861433269665e-01
2.163200000000000145e+01,-4.024005215506162858e-01,-2.028996651903438864e-01,-2.080506623599669425e-01,1.554800935162822251e-01
2.164399999999999835e+01,-3.990683934023816493e-01,-1.890619789719715227e-01,-2.131716472562627251e-01,1.589377655025587255e-01
2.165599999999999881e+01,-3.948723788239347221e-01,-1.766753809719627810e-01,-2.175230158745317943e-01,1.627216689452478660e-01
2.166799999999999926e+01,-3.900469528957766219e-01,-1.658531074416247919e-01,-2.210626187993776637e-01,1.667118870241436068e-01
2.167999999999999972e+01,-3.848496518501895447e-01,-1.566706213651168078e-01,-2.237677158270733602e-01,1.707792508071981352e-01
2.169200000000000017e+01,-3.795542921118894575e-01,-1.491598158905936555e-01,-2.256374553725587762e-01,1.747889030611041172e-01
2.170400000000000063e+01,-3.744425348292196309e-01,-1.433046015802880990e-01,-2.266946010815151236e-01,1.786045998704184901e-01
2.171600000000000108e+01,-3.697941181547855227e-01,-1.390384021775830092e-01,-2.269862652206486031e-01,1.820935668528168017e-01
2.172800000000000153e+01,-3.658762632440495932e-01,-1.362439971319567011e-01,-2.265834601115624680e-01,1.851316410441672111e-01
2.173999999999999844e+01,-3.629329163059700214e-01,-1.347559919498468872e-01,-2.255793639415063778e-01,1.876083609625438242e-01
2.175199999999999889e+01,-3.611745883026483694e-01,-1.343659800649445735e-01,-2.240863089315373591e-01,1.894316300729140534e-01
2.176399999999999935e+01,-3.607695712843742020e-01,-1.348302064350114515e-01,-2.222316248260554350e-01,1.905315837648606514e-01
2.177599999999999980e+01,-3.618372327130806587e-01,-1.358792882857526862e-01,-2.201525910970474897e-01,1.908633415670946964e-01
2.178800000000000026e+01,-3.644439197025676203e-01,-1.372293316015026632e-01,-2.179908479830681700e-01,1.904084208446135129e-01
2.180000000000000071e+01,-3.686017645793088771e-01,-1.385936384885687045e-01,-2.158866732964198898e-01,1.891747134560601562e-01
2.181200000000000117e+01,-3.742704062959912870e-01,-1.396941537858782112e-01,-2.139735393721246548e-01,1.871950643702945116e-01
2.182400000000000162e+01,-3.813613706199984743e-01,-1.402718552014846076e-01,-2.123733221341550237e-01,1.845246203059545120e-01
2.183599999999999852e+01,-3.897446251350420998e-01,-1.400954372383096669e-01,-2.111924505137660890e-01,1.812372184971350886e-01
2.184799999999999898e+01,-3.992566720851714601e-01,-1.389678477169266346e-01,-2.105191745634487355e-01,1.774211481082609287e-01
2.185999999999999943e+01,-4.097094767104736412e-01,-1.367304712549360368e-01,-2.104220127370700355e-01,1.731746350593167671e-01
