Frequency, Re(SMin1Min1), Im(SMin1Min1), Re(SMax1Min1), Im(SMax1Min1)
2.000000000000000000e+01,-7.887473928945752666e-02,-7.028072332322063964e-01,-1.015222759269286401e-01,7.090269093179256410e-02
2.001200000000000045e+01,-9.425524929878696667e-02,-7.003502591937034172e-01,-1.041892323316683938e-01,6.563234454671308671e-02
2.002400000000000091e+01,-1.095651596782295789e-01,-6.974389489118723029e-01,-1.070441232715492602e-01,6.044632252645239234e-02
2.003600000000000136e+01,-1.247921871942152400e-01,-6.940781469673142912e-01,-1.100835393684712477e-01,5.535064825359856805e-02
2.004799999999999827e+01,-1.399242050736318743e-01,-6.902727761470405232e-01,-1.133039155863366371e-01,5.035117278977977590e-02
2.005999999999999872e+01,-1.549492290897356572e-01,-6.860278542234135024e-01,-1.167015399481947519e-01,4.545357512597743288e-02
2.007199999999999918e+01,-1.698554064538303487e-01,-6.813485103551466526e-01,-1.202725617249016110e-01,4.066336271122985430e-02
2.008399999999999963e+01,-1.846310072810060376e-01,-6.762400009929023792e-01,-1.240129991134431287e-01,3.598587220233050860e-02
2.009600000000000009e+01,-1.992644184101623195e-01,-6.707077251882249680e-01,-1.279187464273678076e-01,3.142627038205583062e-02
2.010800000000000054e+01,-2.137441393815146251e-01,-6.647572392205016722e-01,-1.319855808243547701e-01,2.698955519902681080e-02
2.012000000000000099e+01,-2.280587803811485459e-01,-6.583942704708947158e-01,-1.362091685986287770e-01,2.268055688733856823e-02
2.013200000000000145e+01,-2.421970619812691961e-01,-6.516247304812273766e-01,-1.405850710677724602e-01,1.850393912906978661e-02
2.014399999999999835e+01,-2.561478165122854089e-01,-6.444547271470240091e-01,-1.451087500846398037e-01,1.446420022786393082e-02
2.015599999999999881e+01,-2.698999909154379262e-01,-6.368905760022196549e-01,-1.497755732057088063e-01,1.056567426656027445e-02
2.016799999999999926e+01,-2.834426509311513409e-01,-6.289388105602654599e-01,-1.545808185479060071e-01,6.812532226229457526e-03
2.017999999999999972e+01,-2.967649864904463586e-01,-6.206061916819896052e-01,-1.595196793655742074e-01,3.208783048124645969e-03
2.019200000000000017e+01,-3.098563181800988997e-01,-6.118997159485242143e-01,-1.645872683785495061e-01,-2.417253753014093692e-04
2.020400000000000063e+01,-3.227061046604676742e-01,-6.028266230216687838e-01,-1.697786218823240378e-01,-3.535305291332490555e-03
2.021600000000000108e+01,-3.353039509223337822e-01,-5.933944019785246660e-01,-1.750887036691412824e-01,-6.668428266526536634e-03
2.022800000000000153e+01,-3.476396172715741084e-01,-5.836107966136891978e-01,-1.805124087886101902e-01,-9.637724458967484101e-03
2.023999999999999844e+01,-3.597030289374423262e-01,-5.734838097052347150e-01,-1.860445671740913742e-01,-1.243998198406262058e-02
2.025199999999999889e+01,-3.714842862043185034e-01,-5.630217062452678167e-01,-1.916799471601660643e-01,-1.507214637228593106e-02
2.026399999999999935e+01,-3.829736749705864862e-01,-5.522330156405912405e-01,-1.974132589139418748e-01,-1.753132011473087018e-02
2.027599999999999980e+01,-3.941616776427702695e-01,-5.411265328913380523e-01,-2.032391578017704314e-01,-1.981476229061585742e-02
2.028800000000000026e+01,-4.050389842763614801e-01,-5.297113187619181263e-01,-2.091522477103930355e-01,-2.191988826867655171e-02
2.030000000000000071e+01,-4.155965038787243215e-01,-5.179966989589062099e-01,-2.151470843398376465e-01,-2.384426947312335426e-02
2.031200000000000117e+01,-4.258253757932086159e-01,-5.059922623375353590e-01,-2.212181784829618802e-01,-2.558563320350035891e-02
2.032400000000000162e+01,-4.357169810862078219e-01,-4.937078581597983962e-01,-2.273599993048623924e-01,-2.714186249668525119e-02
2.033599999999999852e+01,-4.452629538636609374e-01,-4.811535924316183710e-01,-2.335669776327765901e-01,-2.851099601849926141e-02
2.034799999999999898e+01,-4.544551924457556624e-01,-4.683398233496003926e-01,-2.398335092653604561e-01,-2.969122797185608578e-02
2.035999999999999943e+01,-4.632858703332458084e-01,-4.552771558916063888e-01,-2.461539583080222804e-01,-3.068090800790481895e-02
2.037199999999999989e+01,-4.717474469015184302e-01,-4.419764355881722340e-01,-2.525226605389576662e-01,-3.147854112651506803e-02
2.038400000000000034e+01,-4.798326777627711648e-01,-4.284487415150730061e-01,-2.589339268086519597e-01,-3.208278755248644004e-02
2.039600000000000080e+01,-4.875346247405599187e-01,-4.147053785503685974e-01,-2.653820464736383888e-01,-3.249246257395857485e-02
2.040800000000000125e+01,-4.948466654042141810e-01,-4.007578689418000439e-01,-2.718612908635443248e-01,-3.270653632995344784e-02
2.042000000000000171e+01,-5.017625021155602827e-01,-3.866179432332981225e-01,-2.783659167787003175e-01,-3.272413353442078787e-02
2.043199999999999861e+01,-5.082761705437268684e-01,-3.722975306015697816e-01,-2.848901700139745419e-01,-3.254453312483608640e-02
2.044399999999999906e+01,-5.143820476085423365e-01,-3.578087486560597164e-01,-2.914282889029423118e-01,-3.216716782417607806e-02
2.045599999999999952e+01,-5.200748588170907016e-01,-3.431638927575798026e-01,-2.979745078750692944e-01,-3.159162360599009067e-02
2.046799999999999997e+01,-5.253496849625876042e-01,-3.283754249126372149e-01,-3.045230610173011998e-01,-3.081763905329348158e-02
2.048000000000000043e+01,-5.302019681591336742e-01,-3.134559623019926300e-01,-3.110681856302223158e-01,-2.984510460312737867e-02
2.049200000000000088e+01,-5.346275171905100487e-01,-2.984182655032293074e-01,-3.176041257678672847e-01,-2.867406166979015805e-02
2.050400000000000134e+01,-5.386225121559350404e-01,-2.832752264684069710e-01,-3.241251357492926921e-01,-2.730470164105869638e-02
2.051599999999999824e+01,-5.421835083999926308e-01,-2.680398563179661187e-01,-3.306254836292192301e-01,-2.573736474300783450e-02
2.052799999999999869e+01,-5.453074397193092837e-01,-2.527252730132171776e-01,-3.370994546142661030e-01,-2.397253877046050946e-02
2.053999999999999915e+01,-5.479916208423709634e-01,-2.373446889695805806e-01,-3.435413544107376316e-01,-2.201085768151433975e-02
2.055199999999999960e+01,-5.502337491845392670e-01,-2.219113986725165522e-01,-3.499455124894431668e-01,-1.985310005608162398e-02
2.056400000000000006e+01,-5.520319058839944226e-01,-2.064387663580564691e-01,-3.563062852526692748e-01,-1.750018741991439877e-02
2.057600000000000051e+01,-5.533845561298863513e-01,-1.909402138189822129e-01,-3.626180590881640242e-01,-1.495318243701464558e-02
2.058800000000000097e+01,-5.542905487978145862e-01,-1.754292083968676530e-01,-3.688752532948772478e-01,-1.221328697502684774e-02
2.060000000000000142e+01,-5.547491154125683277e-01,-1.599192512190708571e-01,-3.750723228651960950e-01,-9.281840049591472824e-03
2.061199999999999832e+01,-5.547598684626364740e-01,-1.444238657381865520e-01,-3.812037611085239974e-01,-6.160315655384756423e-03
2.062399999999999878e+01,-5.543227990946925088e-01,-1.289565866302265773e-01,-3.872641021011810070e-01,-2.850320492863438367e-03
2.063599999999999923e+01,-5.534382742211808592e-01,-1.135309491053583947e-01,-3.932479229480061456e-01,6.464083984215335124e-04
2.064799999999999969e+01,-5.521070330777952950e-01,-9.816047868362728912e-02,-3.991498458413744732e-01,4.328006087828165441e-03
2.066000000000000014e+01,-5.503301832714561082e-01,-8.285868148511361941e-02,-4.049645399038266369e-01,8.192482269083966109e-03
2.067200000000000060e+01,-5.481091963637606534e-01,-6.763903508220449334e-02,-4.106867228012124893e-01,1.223772382806876009e-02
2.068400000000000105e+01,-5.454459030380554019e-01,-5.251497995858410428e-02,-4.163111621136526552e-01,1.646149744602529857e-02
2.069600000000000151e+01,-5.423424879021121470e-01,-3.749991161686504898e-02,-4.218326764527431938e-01,2.086145222015593770e-02
2.070799999999999841e+01,-5.388014839819179613e-01,-2.260717337410080713e-02,-4.272461363138866930e-01,2.543512228183537199e-02
2.071999999999999886e+01,-5.348257669651570456e-01,-7.850049881113351988e-03,-4.325464646537741098e-01,3.017992939136926456e-02
2.073199999999999932e+01,-5.304185492567586868e-01,6.758238601381023718e-03,-4.377286371839171908e-01,3.509318548677749228e-02
2.074399999999999977e+01,-5.255833739112061309e-01,2.120454114042041524e-02,-4.427876823721839661e-01,4.017209516269063668e-02
2.075600000000000023e+01,-5.203241085104188812e-01,3.547578025553829728e-02,-4.477186811454081372e-01,4.541375805391815318e-02
2.076800000000000068e+01,-5.146449390582036321e-01,4.955895520812166749e-02,-4.525167662873010310e-01,5.081517109695186940e-02
2.078000000000000114e+01,-5.085503639657156238e-01,6.344114443575735174e-02,-4.571771215271613342e-01,5.637323064113452381e-02
2.079200000000000159e+01,-5.020451882054910442e-01,7.710950711617915732e-02,-4.616949803162215260e-01,6.208473437978987569e-02
2.080399999999999849e+01,-4.951345177141088794e-01,9.055128384844106371e-02,-4.660656242898023049e-01,6.794638307014128076e-02
2.081599999999999895e+01,-4.878237541273033329e-01,1.037537964435364390e-01,-4.702843814150086121e-01,7.395478200924075762e-02
2.082799999999999940e+01,-4.801185899339457386e-01,1.167044468200205687e-01,-4.743466238252386225e-01,8.010644223162756428e-02
2.083999999999999986e+01,-4.720250041388881490e-01,1.293907150045643384e-01,-4.782477653444788257e-01,8.639778139270123947e-02
2.085200000000000031e+01,-4.635492585281026368e-01,1.418001562416891792e-01,-4.819832587061509965e-01,9.282512430015540938e-02
2.086400000000000077e+01,-4.546978946328489313e-01,1.539203972211372340e-01,-4.855485924732445002e-01,9.938470305389976445e-02
2.087600000000000122e+01,-4.454777314939237787e-01,1.657391314363433621e-01,-4.889392876685706435e-01,1.060726567530381054e-01
2.088800000000000168e+01,-4.358958643306335423e-01,1.772441136922280336e-01,-4.921508941262153769e-01,1.128850307264695485e-01
2.089999999999999858e+01,-4.259596642238849262e-01,1.884231537861292827e-01,-4.951789865778494781e-01,1.198177752414252978e-01
2.091199999999999903e+01,-4.156767789273225766e-01,1.992641093913208594e-01,-4.980191604902389768e-01,1.268667436420319594e-01
2.092399999999999949e+01,-4.050551349256335532e-01,2.097548781789044803e-01,-5.006670276733571345e-01,1.340276898675012429e-01
2.093599999999999994e+01,-3.941029408645220222e-01,2.198833892209182683e-01,-5.031182116818797567e-01,1.412962652969737276e-01
2.094800000000000040e+01,-3.828286924829513715e-01,2.296375937250066945e-01,-5.053683430365958351e-01,1.486680148652176070e-01
2.096000000000000085e+01,-3.712411791844539843e-01,2.390054551595626742e-01,-5.074130542964578883e-01,1.561383723904781751e-01
2.097200000000000131e+01,-3.593494923913551631e-01,2.479749388377761876e-01,-5.092479750167286934e-01,1.637026550526336499e-01
2.098400000000000176e+01,-3.471630358329715338e-01,2.565340010396579551e-01,-5.108687266339863031e-01,1.713560569565281966e-01
2.099599999999999866e+01,-3.346915379267749180e-01,2.646705777631649936e-01,-5.122709173247391723e-01,1.790936417119089186e-01
2.100799999999999912e+01,-3.219450664197412437e-01,2.723725732091459850e-01,-5.134501368911686958e-01,1.869103339578173373e-01
2.101999999999999957e+01,-3.089340454659553203e-01,2.796278481202223443e-01,-5.144019517351647863e-01,1.948009097555427060e-01
2.103200000000000003e+01,-2.956692753255397710e-01,2.864242081112409188e-01,-5.151218999905179396e-01,2.027599857705534581e-01
2.104400000000000048e+01,-2.821619548794638277e-01,2.927493921488129036e-01,-5.156054868928852120e-01,2.107820071599408873e-01
2.105600000000000094e+01,-2.684237071643953976e-01,2.985910613600520902e-01,-5.158481804783405789e-01,2.188612340782206400e-01
2.106800000000000139e+01,-2.544666081412764180e-01,3.039367883762719713e-01,-5.158454077138148186e-01,2.269917267107128267e-01
2.107999999999999829e+01,-2.403032189208368641e-01,3.087740474467707275e-01,-5.155925511770526048e-01,2.351673287403915069e-01
2.109199999999999875e+01,-2.259466216780174064e-01,3.130902055907731629e-01,-5.150849464197067018e-01,2.433816491511462676e-01
2.110399999999999920e+01,-2.114104594956222882e-01,3.168725150934969537e-01,-5.143178801654323395e-01,2.516280422680374773e-01
2.111599999999999966e+01,-1.967089803841614304e-01,3.201081076946847292e-01,-5.132865895152025626e-01,2.598995859336828973e-01
2.112800000000000011e+01,-1.818570857299537658e-01,3.227839908663781565e-01,-5.119862623551687530e-01,2.681890577193793423e-01
2.114000000000000057e+01,-1.668703834262404151e-01,3.248870466310151417e-01,-5.104120391881041829e-01,2.764889090707176034e-01
2.115200000000000102e+01,-1.517652459411242827e-01,3.264040334321473558e-01,-5.085590166384336142e-01,2.847912372902478007e-01
2.116400000000000148e+01,-1.365588735711595891e-01,3.273215916389762836e-01,-5.064222529130397721e-01,2.930877552650846818e-01
2.117599999999999838e+01,-1.212693631188711402e-01,3.276262533426576029e-01,-5.039967755358731871e-01,3.013697588555943607e-01
2.118799999999999883e+01,-1.059157822146459677e-01,3.273044571885044829e-01,-5.012775917142061610e-01,3.096280918731326715e-01
2.119999999999999929e+01,-9.051824947730194304e-02,3.263425690830020209e-01,-4.982597017379390425e-01,3.178531085914338417e-01
2.121199999999999974e+01,-7.509802067004900383e-02,3.247269097204457666e-01,-4.949381158616986132e-01,3.260346337581582765e-01
2.122400000000000020e+01,-5.967758095824286096e-02,3.224437899893374260e-01,-4.913078751715422299e-01,3.341619201019225271e-01
2.123600000000000065e+01,-4.428074330828749711e-02,3.194795554455387987e-01,-4.873640769949786344e-01,3.422236033669403543e-01
2.124800000000000111e+01,-2.893275298067775336e-02,3.158206411759520993e-01,-4.831019054738066587e-01,3.502076549540059647e-01
2.126000000000000156e+01,-1.366039796024342418e-02,3.114536385241400418e-01,-4.785166679838035453e-01,3.581013323045038055e-01
2.127199999999999847e+01,1.507874971444744501e-03,3.063653753057536955e-01,-4.736038381532571284e-01,3.658911272358157940e-01
2.128399999999999892e+01,1.654183898751446224e-02,3.005430113058651376e-01,-4.683591063021501077e-01,3.735627125239530666e-01
2.129599999999999937e+01,3.140936146705557153e-02,2.939741510200962193e-01,-4.627784381946091208e-01,3.811008871352168925e-01
2.130799999999999983e+01,4.607627467744746658e-02,2.866469757721050171e-01,-4.568581430667114640e-01,3.884895206360689524e-01
2.132000000000000028e+01,6.050624412608421321e-02,2.785503975080566574e-01,-4.505949519575232487e-01,3.957114974619714842e-01
2.133200000000000074e+01,7.466063618703941418e-02,2.696742367259075679e-01,-4.439861074294373933e-01,4.027486619052839667e-01
2.134400000000000119e+01,8.849838704223741970e-02,2.600094271361862441e-01,-4.370294658106403385e-01,4.095817648923608667e-01
2.135600000000000165e+01,1.019758754866096073e-01,2.495482497588313031e-01,-4.297236131213360011e-01,4.161904138641337458e-01
2.136799999999999855e+01,1.150468027385505437e-01,2.382845992239516764e-01,-4.220679958498943507e-01,4.225530273555724858e-01
2.137999999999999901e+01,1.276620830791016514e-01,2.262142850445413855e-01,-4.140630677159853335e-01,4.286467961897004186e-01
2.139199999999999946e+01,1.397697499188821080e-01,2.133353705448810256e-01,-4.057104534849566013e-01,4.344476535629699931e-01
2.140399999999999991e+01,1.513148827650226402e-01,1.996485519314358525e-01,-3.970131307680220822e-01,4.399302567004562681e-01
2.141600000000000037e+01,1.622395615277984759e-01,1.851575796544157604e-01,-3.879756305423600060e-01,4.450679831996616764e-01
2.142800000000000082e+01,1.724828556631812781e-01,1.698697236887427298e-01,-3.786042568362198435e-01,4.498329456557655370e-01
2.144000000000000128e+01,1.819808567770807017e-01,1.537962836231685504e-01,-3.689073256284252089e-01,4.541960286602839680e-01
2.145199999999999818e+01,1.906667644956863694e-01,1.369531434390063862e-01,-3.588954224883426636e-01,4.581269527759482263e-01
2.146399999999999864e+01,1.984710365973503809e-01,1.193613695358675258e-01,-3.485816778099581903e-01,4.615943705936647601e-01
2.147599999999999909e+01,2.053216155515706076e-01,1.010478488711881312e-01,-3.379820576508472674e-01,4.645660004458517789e-01
2.148799999999999955e+01,2.111442446492639013e-01,8.204596197303291871e-02,-3.271156671532698956e-01,4.670088037487928334e-01
2.150000000000000000e+01,2.158628877419571379e-01,6.239628302078361471e-02,-3.160050622848900592e-01,4.688892122294103793e-01
2.151200000000000045e+01,2.194002671191391252e-01,4.214729613363990546e-02,-3.046765641808776848e-01,4.701734114029036959e-01
2.152400000000000091e+01,2.216785340993540632e-01,2.135611345378777073e-02,-2.931605686989466331e-01,4.708276865393958843e-01
2.153600000000000136e+01,2.226200863238347316e-01,8.917657779388194123e-05,-2.814918419303530928e-01,4.708188369121562022e-01
2.154800000000000182e+01,2.221485443302157470e-01,-2.157708156207905834e-02,-2.697097903795051543e-01,4.701146632701290184e-01
2.155999999999999872e+01,2.201898975418919990e-01,-4.355564202092205434e-02,-2.578586923951765031e-01,4.686845321313317658e-01
2.157199999999999918e+01,2.166738261247201369e-01,-6.574840490087945077e-02,-2.459878753015678488e-01,4.665000185599963989e-01
2.158399999999999963e+01,2.115352000390162690e-01,-8.804583141752163333e-02,-2.341518206686383496e-01,4.635356264872746990e-01
2.159600000000000009e+01,2.047157498905666506e-01,-1.103267644907802436e-01,-2.224101784489998512e-01,4.597695823021804573e-01
2.160800000000000054e+01,1.961658957670469050e-01,-1.324584726925626121e-01,-2.108276695048712790e-01,4.551846933513424287e-01
2.162000000000000099e+01,1.858467101486950823e-01,-1.542969642359836024e-01,-1.994738555999292506e-01,4.497692581710561188e-01
2.163200000000000145e+01,1.737319793637240040e-01,-1.756876174858738315e-01,-1.884227565103381852e-01,4.435180098324368880e-01
2.164399999999999835e+01,1.598103152668206017e-01,-1.964661715791997110e-01,-1.777522957964685624e-01,4.364330678987857759e-01
2.165599999999999881e+01,1.440872554228237179e-01,-2.164601145620227152e-01,-1.675435602318841033e-01,4.285248684654155982e-01
2.166799999999999926e+01,1.265872768909500623e-01,-2.354904964677808077e-01,-1.578798631139796960e-01,4.198130359782529797e-01
2.167999999999999972e+01,1.073556367819143847e-01,-2.533741806599939528e-01,-1.488456087878134437e-01,4.103271555155416084e-01
2.169200000000000017e+01,8.645994336180037876e-02,-2.699265285085361010e-01,-1.405249646648243922e-01,4.001074005588720062e-01
2.170400000000000063e+01,6.399135599073986491e-02,-2.849644904201963369e-01,-1.330003575869279642e-01,3.892049696113019097e-01
2.171600000000000108e+01,4.006531200768750217e-02,-2.983100512271988913e-01,-1.263508231302439277e-01,3.776822859619934913e-01
2.172800000000000153e+01,1.482168504373009357e-02,-3.097939512899495762e-01,-1.206502486841803251e-01,3.656129189747781005e-01
2.173999999999999844e+01,-1.157570694483453337e-02,-3.192595782247827363e-01,-1.159655629862876014e-01,3.530811928350144902e-01
2.175199999999999889e+01,-3.894030404612653512e-02,-3.265669001575884911e-01,-1.123549351809479818e-01,3.401814597942077190e-01
2.176399999999999935e+01,-6.706474830794520448e-02,-3.315962922868962992e-01,-1.098660542646567734e-01,3.270170293262542605e-01
2.177599999999999980e+01,-9.572356519181118850e-02,-3.342520967420556377e-01,-1.085345638940660856e-01,3.136987615824911591e-01
2.178800000000000026e+01,-1.246765393134716404e-01,-3.344657533298128205e-01,-1.083827270703780626e-01,3.003433520490936259e-01
2.180000000000000071e+01,-1.536727006995960432e-01,-3.321983472009814586e-01,-1.094183896192308797e-01,2.870713529898529792e-01
2.181200000000000117e+01,-1.824547993293446357e-01,-3.274424392185228405e-01,-1.116343005661518256e-01,2.740049945197496339e-01
2.182400000000000162e+01,-2.107641128148358689e-01,-3.202230752189340612e-01,-1.150078319068336546e-01,2.612658823897077709e-01
2.183599999999999852e+01,-2.383454079328234110e-01,-3.105979096052179367e-01,-1.195011208723690821e-01,2.489726593292490020e-01
2.184799999999999898e+01,-2.649518638898089029e-01,-2.986564239172241897e-01,-1.250616360404305794e-01,2.372387210137235081e-01
2.185999999999999943e+01,-2.903497651741038244e-01,-2.845182685594749850e-01,-1.316231463078678388e-01,2.261700758402365730e-01
