Frequency, Re(SMin1Min1), Im(SMin1Min1), Re(SMax1Min1), Im(SMax1Min1)
2.000000000000000000e+01,-4.045218179718633733e-01,8.398281002759090674e-02,-5.415526884697463572e-01,4.312530779931676717e-02
2.001200000000000045e+01,-3.965025901136386977e-01,9.775879832914854961e-02,-5.457166534814952286e-01,5.046975183288086170e-02
2.002400000000000091e+01,-3.880658412838267624e-01,1.112257643849399041e-01,-5.496724794943123049e-01,5.794080903679493105e-02
2.003600000000000136e+01,-3.792230995252865444e-01,1.243702789190364033e-01,-5.534166705990818391e-01,6.553170311816226834e-02
2.004799999999999827e+01,-3.699862957866301705e-01,1.371794415189373229e-01,-5.569459817067456964e-01,7.323559348734068331e-02
2.005999999999999872e+01,-3.603677324439150675e-01,1.496408885836581493e-01,-5.602574165404302642e-01,8.104558652846582945e-02
2.007199999999999918e+01,-3.503800521317520511e-01,1.617427990682635541e-01,-5.633482250209712605e-01,8.895474648233581139e-02
2.008399999999999963e+01,-3.400362070445878682e-01,1.734738980948228870e-01,-5.662159000838667966e-01,9.695610590713649168e-02
2.009600000000000009e+01,-3.293494288599853603e-01,1.848234585104809313e-01,-5.688581739673707061e-01,1.050426756857263388e-01
2.010800000000000054e+01,-3.183331994265134468e-01,1.957813004838603044e-01,-5.712730140128399192e-01,1.132074545516967151e-01
2.012000000000000099e+01,-3.070012223486654479e-01,2.063377892396670577e-01,-5.734586180195780925e-01,1.214434381097749122e-01
2.013200000000000145e+01,-2.953673955910179894e-01,2.164838310397569354e-01,-5.754134091972211706e-01,1.297436273295443920e-01
2.014399999999999835e+01,-2.834457852133038802e-01,2.262108675256910562e-01,-5.771360307592834360e-01,1.381010364947893865e-01
2.015599999999999881e+01,-2.712506003369409280e-01,2.355108685438486449e-01,-5.786253402017693670e-01,1.465087005940478582e-01
2.016799999999999926e+01,-2.587961694330234708e-01,2.443763235793749433e-01,-5.798804033107981537e-01,1.549596821410967884e-01
2.017999999999999972e+01,-2.460969180104940757e-01,2.528002319291899336e-01,-5.809004879430792467e-01,1.634470774172555319e-01
2.019200000000000017e+01,-2.331673477724212629e-01,2.607760917477351947e-01,-5.816850576226474390e-01,1.719640221302772554e-01
2.020400000000000063e+01,-2.200220172975752564e-01,2.682978881014965178e-01,-5.822337649967591622e-01,1.805036964874363048e-01
2.021600000000000108e+01,-2.066755242935732761e-01,2.753600801701467926e-01,-5.825464451931413601e-01,1.890593296831520886e-01
2.022800000000000153e+01,-1.931424894575699269e-01,2.819575877330711688e-01,-5.826231091199123302e-01,1.976242038039633941e-01
2.023999999999999844e+01,-1.794375419699574814e-01,2.880857770804899354e-01,-5.824639367485581198e-01,2.061916571561085709e-01
2.025199999999999889e+01,-1.655753066365587278e-01,2.937404464880388755e-01,-5.820692704192416134e-01,2.147550870231593190e-01
2.026399999999999935e+01,-1.515703926848080141e-01,2.989178113928769309e-01,-5.814396082066055627e-01,2.233079518632187788e-01
2.027599999999999980e+01,-1.374373842097390275e-01,3.036144894080075596e-01,-5.805755973829951344e-01,2.318437729571760642e-01
2.028800000000000026e+01,-1.231908322561730412e-01,3.078274853095430141e-01,-5.794780280147852070e-01,2.403561355211948913e-01
2.030000000000000071e+01,-1.088452485142243770e-01,3.115541761292630607e-01,-5.781478267262165627e-01,2.488386892982898946e-01
2.031200000000000117e+01,-9.441510059624641515e-02,3.147922964818522518e-01,-5.765860506638499361e-01,2.572851486453101022e-01
2.032400000000000162e+01,-7.991480885452294236e-02,3.175399242527980337e-01,-5.747938816934833328e-01,2.656892921329989110e-01
2.033599999999999852e+01,-6.535874469049056390e-02,3.197954667689353325e-01,-5.727726208600966151e-01,2.740449616780468722e-01
2.034799999999999898e+01,-5.076123029795932134e-02,3.215576475691765412e-01,-5.705236831401728770e-01,2.823460612271701531e-01
2.035999999999999943e+01,-3.613653977486875474e-02,3.228254938879143721e-01,-5.680485925145591919e-01,2.905865550142600062e-01
2.037199999999999989e+01,-2.149890153033744492e-02,3.235983249579701404e-01,-5.653489773889016634e-01,2.987604654126415626e-01
2.038400000000000034e+01,-6.862501906674550560e-03,3.238757412338704178e-01,-5.624265663876026888e-01,3.068618704053128199e-01
2.039600000000000080e+01,7.758510070900620156e-03,3.236576146293999590e-01,-5.592831845462915563e-01,3.148849006968738595e-01
2.040800000000000125e+01,2.235001691030230608e-02,3.229440798561480364e-01,-5.559207499268143948e-01,3.228237364916552998e-01
2.042000000000000171e+01,3.689792593339275700e-02,3.217355269419052144e-01,-5.523412706779561310e-01,3.306726039633014480e-01
2.043199999999999861e+01,5.138816172546818023e-02,3.200325949994148877e-01,-5.485468425643057477e-01,3.384257714418308360e-01
2.044399999999999906e+01,6.580665786148647001e-02,3.178361673073202276e-01,-5.445396469849808074e-01,3.460775453449889683e-01
2.045599999999999952e+01,8.013934801984007317e-02,3.151473677558752073e-01,-5.403219495033551034e-01,3.536222658814464070e-01
2.046799999999999997e+01,9.437215659697813230e-02,3.119675587011500051e-01,-5.358960989083471071e-01,3.610543025543387907e-01
2.048000000000000043e+01,1.084909889367812463e-01,3.082983402615337432e-01,-5.312645268273905597e-01,3.683680494944784334e-01
2.049200000000000088e+01,1.224817212885767337e-01,3.041415510818386014e-01,-5.264297479108011046e-01,3.755579206536056036e-01
2.050400000000000134e+01,1.363301906064267599e-01,2.994992705810494704e-01,-5.213943606069061376e-01,3.826183448891311567e-01
2.051599999999999824e+01,1.500221842996514732e-01,2.943738226916969292e-01,-5.161610485469951826e-01,3.895437609730533213e-01
2.052799999999999869e+01,1.635434300412182407e-01,2.887677810913007459e-01,-5.107325825588890922e-01,3.963286125590941844e-01
2.053999999999999915e+01,1.768795857361688262e-01,2.826839759200391322e-01,-5.051118233276815639e-01,4.029673431435693010e-01
2.055199999999999960e+01,1.900162297469371042e-01,2.761255019734071281e-01,-4.993017247219287413e-01,4.094543910572787659e-01
2.056400000000000006e+01,2.029388514668765409e-01,2.690957283549939572e-01,-4.933053378033421810e-01,4.157841845274962700e-01
2.057600000000000051e+01,2.156328423272264594e-01,2.615983095722342333e-01,-4.871258155376794186e-01,4.219511368512892657e-01
2.058800000000000097e+01,2.280834873169645949e-01,2.536371980574810836e-01,-4.807664182242111228e-01,4.279496417236802741e-01
2.060000000000000142e+01,2.402759570894149876e-01,2.452166580979946442e-01,-4.742305196606392825e-01,4.337740687667382966e-01
2.061199999999999832e+01,2.521953007250914980e-01,2.363412811612226883e-01,-4.675216140597777126e-01,4.394187593084877275e-01
2.062399999999999878e+01,2.638264392165845518e-01,2.270160026062898739e-01,-4.606433237335524344e-01,4.448780224636236236e-01
2.063599999999999923e+01,2.751541597395684713e-01,2.172461197785129083e-01,-4.535994075589774299e-01,4.501461315713555233e-01
2.064799999999999969e+01,2.861631107741711144e-01,2.070373114906705614e-01,-4.463937702395315288e-01,4.552173210494054323e-01
2.066000000000000014e+01,2.968377981431061241e-01,1.963956589026766564e-01,-4.390304723739671955e-01,4.600857837271042361e-01
2.067200000000000060e+01,3.071625820379081384e-01,1.853276678194944738e-01,-4.315137413427745927e-01,4.647456687248075480e-01
2.068400000000000105e+01,3.171216751120929933e-01,1.738402924352850931e-01,-4.238479830203543686e-01,4.691910799514254493e-01
2.069600000000000151e+01,3.266991417303478640e-01,1.619409605594795409e-01,-4.160377943183469762e-01,4.734160752967237484e-01
2.070799999999999841e+01,3.358788984759695229e-01,1.496376003669989407e-01,-4.080879765624437772e-01,4.774146666002254680e-01
2.071999999999999886e+01,3.446447160346539640e-01,1.369386687198738128e-01,-4.000035497012970342e-01,4.811808204839962966e-01
2.073199999999999932e+01,3.529802225911251590e-01,1.238531811104714581e-01,-3.917897673418324622e-01,4.847084601422925187e-01
2.074399999999999977e+01,3.608689088960314595e-01,1.103907432767726737e-01,-3.834521326001263386e-01,4.879914681870284321e-01
2.075600000000000023e+01,3.682941351832926258e-01,9.656158453760400884e-02,-3.749964147511787305e-01,4.910236906541323720e-01
2.076800000000000068e+01,3.752391401427810358e-01,8.237659288940542279e-02,-3.664286666540922388e-01,4.937989422821828511e-01
2.078000000000000114e+01,3.816870521790731718e-01,6.784735189643650854e-02,-3.577552429213815555e-01,4.963110131810939407e-01
2.079200000000000159e+01,3.876209032136512245e-01,5.298617939208367239e-02,-3.489828187922802138e-01,4.985536770150341135e-01
2.080399999999999849e+01,3.930236453151420561e-01,3.780616799083604679e-02,-3.401184096598463547e-01,5.005207008301145732e-01
2.081599999999999895e+01,3.978781704689887122e-01,2.232122738746924323e-02,-3.311693911903178522e-01,5.022058566635653198e-01
2.082799999999999940e+01,4.021673338243085816e-01,6.546128392805615308e-03,-3.221435199605088284e-01,5.036029350769963830e-01
2.083999999999999986e+01,4.058739807808003364e-01,-9.503451377135107431e-03,-3.130489545247485128e-01,5.047057607618441466e-01
2.085200000000000031e+01,4.089809783020155187e-01,-2.581088027839544691e-02,-3.038942768071959954e-01,5.055082103699495288e-01
2.086400000000000077e+01,4.114712508625762988e-01,-4.235852404458786968e-02,-2.946885136978891762e-01,5.060042327263480910e-01
2.087600000000000122e+01,4.133278214555338170e-01,-5.912769602891208148e-02,-2.854411587117813842e-01,5.061878715844684296e-01
2.088800000000000168e+01,4.145338581012724677e-01,-7.609860654250649725e-02,-2.761621935490658486e-01,5.060532910858772659e-01
2.089999999999999858e+01,4.150727263109372789e-01,-9.325031160503435834e-02,-2.668621093723376747e-01,5.055948040871197646e-01
2.091199999999999903e+01,4.149280479645215403e-01,-1.105606614842972180e-01,-2.575519275915198469e-01,5.048069035149285178e-01
2.092399999999999949e+01,4.140837670656056790e-01,-1.280062494670980711e-01,-2.482432199210426460e-01,5.036842969076639198e-01
2.093599999999999994e+01,4.125242228315740278e-01,-1.455623613738511180e-01,-2.389481274454372528e-01,5.022219442950632828e-01
2.094800000000000040e+01,4.102342305676753287e-01,-1.632029264032503202e-01,-2.296793783995288440e-01,5.004150995598081186e-01
2.096000000000000085e+01,4.071991707564776020e-01,-1.809004699723336107e-01,-2.204503043377933902e-01,4.982593554126938939e-01
2.097200000000000131e+01,4.034050867690553432e-01,-1.986260692989676724e-01,-2.112748543343158647e-01,4.957506920978914655e-01
2.098400000000000176e+01,3.988387915701257502e-01,-2.163493125598352773e-01,-2.021676068205400800e-01,4.928855299255467948e-01
2.099599999999999866e+01,3.934879837456397578e-01,-2.340382625451680743e-01,-1.931437786327498685e-01,4.896607857053031365e-01
2.100799999999999912e+01,3.873413731268853799e-01,-2.516594258224179037e-01,-1.842192308053901828e-01,4.860739331258656093e-01
2.101999999999999957e+01,3.803888162187663013e-01,-2.691777285131339847e-01,-1.754104706104583633e-01,4.821230670920524930e-01
2.103200000000000003e+01,3.726214615610972114e-01,-2.865564998799660090e-01,-1.667346493074919889e-01,4.778069719914605495e-01
2.104400000000000048e+01,3.640319050592505934e-01,-3.037574650126992348e-01,-1.582095550341219570e-01,4.731251938176601612e-01
2.105600000000000094e+01,3.546143552135094801e-01,-3.207407479921489113e-01,-1.498536002340174478e-01,4.680781160252760476e-01
2.106800000000000139e+01,3.443648080541959478e-01,-3.374648869972273202e-01,-1.416858029883371617e-01,4.626670389343318646e-01
2.107999999999999829e+01,3.332812314516147567e-01,-3.538868629016538314e-01,-1.337257615891164209e-01,4.568942624365108784e-01
2.109199999999999875e+01,3.213637583152837984e-01,-3.699621429810199258e-01,-1.259936216693323119e-01,4.507631716845532655e-01
2.110399999999999920e+01,3.086148880258300919e-01,-3.856447414157844200e-01,-1.185100351855297163e-01,4.442783253678523891e-01
2.111599999999999966e+01,2.950396952551484486e-01,-4.008872983298018555e-01,-1.112961105356666119e-01,4.374455460924956407e-01
2.112800000000000011e+01,2.806460451260960887e-01,-4.156411791442704562e-01,-1.043733530883618477e-01,4.302720122929340474e-01
2.114000000000000057e+01,2.654448134429405193e-01,-4.298565960519148965e-01,-9.776359540060260145e-02,4.227663510053214502e-01
2.115200000000000102e+01,2.494501104883078690e-01,-4.434827534234650481e-01,-9.148891641014673948e-02,4.149387307299522432e-01
2.116400000000000148e+01,2.326795066329818695e-01,-4.564680189460121329e-01,-8.557154890697349359e-02,4.068009535026208545e-01
2.117599999999999838e+01,2.151542577424803704e-01,-4.687601222591126771e-01,-8.003377461574295859e-02,3.983665451827427262e-01
2.118799999999999883e+01,1.968995280903798328e-01,-4.803063827979701106e-01,-7.489780625871994557e-02,3.896508428502883370e-01
2.119999999999999929e+01,1.779446082042731858e-01,-4.910539684725860332e-01,-7.018565601626890194e-02,3.806710780846020992e-01
2.121199999999999974e+01,1.583231247768645267e-01,-5.009501867071315395e-01,-6.591898985971632319e-02,3.714464547761797131e-01
2.122400000000000020e+01,1.380732394733373281e-01,-5.099428092342315200e-01,-6.211896729917491117e-02,3.619982199978733495e-01
2.123600000000000065e+01,1.172378331564160464e-01,-5.179804318851365386e-01,-5.880606616633270167e-02,3.523497263342439956e-01
2.124800000000000111e+01,9.586467173185228563e-02,-5.250128704389823708e-01,-5.599989213906666347e-02,3.425264839362319180e-01
2.126000000000000156e+01,7.400654948733527416e-02,-5.309915933931994569e-01,-5.371897281071402741e-02,3.325562004314921438e-01
2.127199999999999847e+01,5.172140545298890141e-02,-5.358701922927761041e-01,-5.198053621207674585e-02,3.224688066762777527e-01
2.128399999999999892e+01,2.907240794595305003e-02,-5.396048900078050936e-01,-5.080027380932395503e-02,3.122964661793773411e-01
2.129599999999999937e+01,6.128002066709867246e-03,-5.421550870741779216e-01,-5.019208812760794086e-02,3.020735658580308569e-01
2.130799999999999983e+01,-1.703808552026082543e-02,-5.434839459066345135e-01,-5.016782529147827130e-02,2.918366855941363913e-01
2.132000000000000028e+01,-4.034689067770190485e-02,-5.435590123473783564e-01,-5.073699293437296948e-02,2.816245438401894785e-01
2.133200000000000074e+01,-6.371431147354920943e-02,-5.423528736127980476e-01,-5.190646411871538413e-02,2.714779162702761206e-01
2.134400000000000119e+01,-8.705127080716959509e-02,-5.398438512232095476e-01,-5.368016813744156540e-02,2.614395241743169840e-01
2.135600000000000165e+01,-1.102639500982920545e-01,-5.360167269137465773e-01,-5.605876935406139960e-02,2.515538889456436222e-01
2.136799999999999855e+01,-1.332541030293521722e-01,-5.308634987839908614e-01,-5.903933560451192497e-02,2.418671486065164522e-01
2.137999999999999901e+01,-1.559194593439248155e-01,-5.243841639894069040e-01,-6.261499816039443889e-02,2.324268318499327912e-01
2.139199999999999946e+01,-1.781542298537536484e-01,-5.165875230310836841e-01,-6.677460587807786119e-02,2.232815845512163277e-01
2.140399999999999991e+01,-1.998497250821575366e-01,-5.074919990629667144e-01,-7.150237697954066329e-02,2.144808431300494478e-01
2.141600000000000037e+01,-2.208951013326857504e-01,-4.971264634876641497e-01,-7.677755298548259721e-02,2.060744485470213661e-01
2.142800000000000082e+01,-2.411782493454425469e-01,-4.855310563115925460e-01,-8.257406071498347988e-02,1.981121941404683229e-01
2.144000000000000128e+01,-2.605868419632537680e-01,-4.727579861193262900e-01,-8.886019005047454677e-02,1.906433000172969294e-01
2.145199999999999818e+01,-2.790095581834526328e-01,-4.588722899385944687e-01,-9.559829741488876098e-02,1.837158064061816531e-01
2.146399999999999864e+01,-2.963375013385121659e-01,-4.439525275410711180e-01,-1.027445476856031631e-01,1.773758784054205451e-01
2.147599999999999909e+01,-3.124658285439515515e-01,-4.280913777327072789e-01,-1.102487106226677227e-01,1.716670151032987646e-01
2.148799999999999955e+01,-3.272956064651704189e-01,-4.113960958727027606e-01,-1.180540318237185832e-01,1.666291573652074753e-01
2.150000000000000000e+01,-3.407359042416167605e-01,-3.939887822891474101e-01,-1.260972026758651054e-01,1.622976909781906618e-01
2.151200000000000045e+01,-3.527061272938918912e-01,-3.760064006914995427e-01,-1.343084585979636980e-01,1.587023456833176749e-01
2.152400000000000091e+01,-3.631385848526167415e-01,-3.576004746582467919e-01,-1.426118397563673756e-01,1.558659963099099099e-01
2.153600000000000136e+01,-3.719812684802375480e-01,-3.389363797266199407e-01,-1.509256529087497634e-01,1.538033801537137535e-01
2.154800000000000182e+01,-3.792007977893352422e-01,-3.201921399382545719e-01,-1.591631763688380330e-01,1.525197552517317534e-01
2.155999999999999872e+01,-3.847854624516035549e-01,-3.015566328726342893e-01,-1.672336513130140423e-01,1.520095374802583610e-01
2.157199999999999918e+01,-3.887482564429016185e-01,-2.832271087920854025e-01,-1.750436005271928941e-01,1.522549703324522219e-01
2.158399999999999963e+01,-3.911297621688624715e-01,-2.654059406067516558e-01,-1.824985087654829308e-01,1.532248992603378601e-01
2.159600000000000009e+01,-3.920007008205270704e-01,-2.482965453020296032e-01,-1.895048856247131541e-01,1.548737414086987507e-01
2.160800000000000054e+01,-3.914639248160283747e-01,-2.320984574362802422e-01,-1.959727108477114788e-01,1.571407594532788776e-01
2.162000000000000099e+01,-3.896555941633984554e-01,-2.170015936037647808e-01,-2.018182323803207889e-01,1.599497622383742601e-01
2.163200000000000145e+01,-3.867452585304057000e-01,-2.031798238074557783e-01,-2.069670494239956859e-01,1.632093613344806071e-01
2.164399999999999835e+01,-3.829345695425492857e-01,-1.907840589784104701e-01,-2.113573677423653818e-01,1.668139073363355818e-01
2.165599999999999881e+01,-3.784543823372824023e-01,-1.799351668937595461e-01,-2.149432661419045099e-01,1.706452086106179100e-01
2.166799999999999926e+01,-3.735600790152783235e-01,-1.707171303474561419e-01,-2.176977670744711657e-01,1.745750951957797670e-01
2.167999999999999972e+01,-3.685250626537096008e-01,-1.631709461003466310e-01,-2.196154683822178211e-01,1.784688307156379883e-01
2.169200000000000017e+01,-3.636325257517922238e-01,-1.572898124827781796e-01,-2.207144761225285912e-01,1.821892978603189273e-01
2.170400000000000063e+01,-3.591657796641816724e-01,-1.530161492264479339e-01,-2.210373885659654425e-01,1.856017947008812841e-01
2.171600000000000108e+01,-3.553976210921780954e-01,-1.502409211119146992e-01,-2.206511247773770279e-01,1.885791904980160527e-01
2.172800000000000153e+01,-3.525793802059820070e-01,-1.488055921829485873e-01,-2.196454689393567694e-01,1.910071145120563196e-01
2.173999999999999844e+01,-3.509304117423398539e-01,-1.485068271249308514e-01,-2.181303087204932711e-01,1.927888042315049066e-01
2.175199999999999889e+01,-3.506288282198575801e-01,-1.491038025695144154e-01,-2.162316707671537164e-01,1.938492326901079532e-01
2.176399999999999935e+01,-3.518042164618111478e-01,-1.503277272738783865e-01,-2.140867816380697397e-01,1.941381747668268487e-01
2.177599999999999980e+01,-3.545329241632338424e-01,-1.518929363755982531e-01,-2.118384886781964349e-01,1.936319580810282048e-01
2.178800000000000026e+01,-3.588362696859646039e-01,-1.535087593284926721e-01,-2.096294447119255167e-01,1.923337650668515419e-01
2.180000000000000071e+01,-3.646817487153359294e-01,-1.548912911185631736e-01,-2.075964812228584255e-01,1.902724916365650387e-01
2.181200000000000117e+01,-3.719870279715476458e-01,-1.557742322716353378e-01,-2.058655638435014923e-01,1.875003035413313479e-01
2.182400000000000162e+01,-3.806262708126284533e-01,-1.559180960087982182e-01,-2.045476478804983678e-01,1.840891441134391293e-01
2.183599999999999852e+01,-3.904381652435329753e-01,-1.551172850621346799e-01,-2.037356442994067707e-01,1.801265217318373801e-01
2.184799999999999898e+01,-4.012349393539313969e-01,-1.532047804622801990e-01,-2.035025862978413758e-01,1.757109351698666888e-01
2.185999999999999943e+01,-4.128116532925434901e-01,-1.500544226464598507e-01,-2.039009715267900424e-01,1.709472814275234120e-01
