Frequency, Re(SMin1Min1), Im(SMin1Min1), Re(SMax1Min1), Im(SMax1Min1)
2.000000000000000000e+01,-4.197339260717553033e-02,-4.011051326966442315e-02,-4.178715617117872427e-01,2.034829604657497626e-01
2.001200000000000045e+01,-3.278194480598005389e-02,-3.370963908441797219e-02,-4.189499014604513571e-01,2.032297217155360491e-01
2.002400000000000091e+01,-2.358099735601972002e-02,-2.714480364561114994e-02,-4.201030043047486728e-01,2.028671257659108162e-01
2.003600000000000136e+01,-1.434467123849478276e-02,-2.039300779814172751e-02,-4.213448096839952917e-01,2.023838691932392797e-01
2.004799999999999827e+01,-5.045356058826840073e-03,-1.342487034933372014e-02,-4.226922579134604341e-01,2.017675274594050161e-01
2.005999999999999872e+01,4.346287325849663985e-03,-6.203160931502284259e-03,-4.241660330787203614e-01,2.010045409232324720e-01
2.007199999999999918e+01,1.386118705983154648e-02,1.319100878495522988e-03,-4.257915100182251833e-01,2.000802721177787347e-01
2.008399999999999963e+01,2.353148169409986779e-02,9.201114928928194603e-03,-4.275999637606394121e-01,1.989791842967899849e-01
2.009600000000000009e+01,3.338973764646299691e-02,1.751751369426630955e-02,-4.296301146428258555e-01,1.976852204632558452e-01
2.010800000000000054e+01,4.346749628469853688e-02,2.636254365341424155e-02,-4.319300981424733510e-01,1.961825078091765651e-01
2.012000000000000099e+01,5.379271693109621832e-02,3.585549118519501532e-02,-4.345599615972053353e-01,1.944565837874754344e-01
2.013200000000000145e+01,6.438541540531549090e-02,4.614766945263107378e-02,-4.375947918276203996e-01,1.924964504320681724e-01
2.014399999999999835e+01,7.525036421130995579e-02,5.743127224791597096e-02,-4.411285494461618106e-01,1.902979322677159912e-01
2.015599999999999881e+01,8.636503282814070315e-02,6.995024838044014426e-02,-4.452785885572362878e-01,1.878690649690972214e-01
2.016799999999999926e+01,9.765988288630897407e-02,8.401285747375103474e-02,-4.501905981564661152e-01,1.852386018051919436e-01
2.017999999999999972e+01,1.089865699695178325e-01,1.000043093003440964e-01,-4.560431699325769861e-01,1.824691976403942095e-01
2.019200000000000017e+01,1.200675790175692592e-01,1.183950219790572689e-01,-4.630501230556165471e-01,1.796773424014848353e-01
2.020400000000000063e+01,1.304189576341764911e-01,1.397339989861443588e-01,-4.714567022390956375e-01,1.770623730552047248e-01
2.021600000000000108e+01,1.392385675576064408e-01,1.646051886297747457e-01,-4.815223286099456490e-01,1.749460770570749613e-01
2.022800000000000153e+01,1.452625546311653304e-01,1.935051644067741772e-01,-4.934775785340597132e-01,1.738206538484868557e-01
2.023999999999999844e+01,1.466279848992405599e-01,2.265764421732959222e-01,-5.074380747668894021e-01,1.743927577729758316e-01
2.025199999999999889e+01,1.408631687337028038e-01,2.631282121190962053e-01,-5.232594358776009313e-01,1.775911249590345353e-01
2.026399999999999935e+01,1.252599058826808220e-01,3.009731582060479749e-01,-5.403404631580347450e-01,1.844768476405309610e-01
2.027599999999999980e+01,9.793709227807678719e-02,3.359223253915084029e-01,-5.574455993814528831e-01,1.959825268568799739e-01
2.028800000000000026e+01,5.952188272652569889e-02,3.622320327302137599e-01,-5.727116138058216954e-01,2.124682992159541706e-01
2.030000000000000071e+01,1.434900297144131587e-02,3.746711948886148891e-01,-5.840255437337985578e-01,2.332658853718099778e-01
2.031200000000000117e+01,-3.049408040478220061e-02,3.713426687638417545e-01,-5.897523211742231597e-01,2.565714152909590040e-01
2.032400000000000162e+01,-6.826905760252990896e-02,3.548177344397387967e-01,-5.894135180480799541e-01,2.799363027866478837e-01
2.033599999999999852e+01,-9.533220239749068403e-02,3.304384942374486434e-01,-5.838192926341407851e-01,3.011234815212909255e-01
2.034799999999999898e+01,-1.115090602904071221e-01,3.035569329358085433e-01,-5.745869401261001208e-01,3.187607101525219977e-01
2.035999999999999943e+01,-1.187150285205496592e-01,2.778821050971697071e-01,-5.634593192727765931e-01,3.324604742589516437e-01
2.037199999999999989e+01,-1.194441987161487528e-01,2.553003697963197594e-01,-5.518391266219458968e-01,3.425396278933952043e-01
2.038400000000000034e+01,-1.159102037330016904e-01,2.364062243828525811e-01,-5.406436125568265805e-01,3.496469178437818792e-01
2.039600000000000080e+01,-1.097758547122027889e-01,2.210879767627262904e-01,-5.303655338278469022e-01,3.544893647213758769e-01
2.040800000000000125e+01,-1.021817105154179395e-01,2.089315886919381748e-01,-5.212021329804920056e-01,3.576919284751576278e-01
2.042000000000000171e+01,-9.386784539908522851e-02,1.994429992310347843e-01,-5.131741361123669520e-01,3.597517330414046755e-01
2.043199999999999861e+01,-8.529600734788007899e-02,1.921513504569709041e-01,-5.062105402995775716e-01,3.610410437058691469e-01
2.044399999999999906e+01,-7.674439330651847135e-02,1.866474886203764449e-01,-5.002010460163561767e-01,3.618285909806739364e-01
2.045599999999999952e+01,-6.837376841685337270e-02,1.825915201706445334e-01,-4.950253368220393635e-01,3.623038902344882795e-01
2.046799999999999997e+01,-6.027123291731799337e-02,1.797074416719069700e-01,-4.905678796042857170e-01,3.625984734069196413e-01
2.048000000000000043e+01,-5.247840260543762403e-02,1.777735551400387859e-01,-4.867244077166879013e-01,3.628024958385732135e-01
2.049200000000000088e+01,-4.500928234228833424e-02,1.766125054973528563e-01,-4.834039432244566226e-01,3.629770213503664134e-01
2.050400000000000134e+01,-3.786150341075445597e-02,1.760824131785762303e-01,-4.805285989664575541e-01,3.631628378258605627e-01
2.051599999999999824e+01,-3.102334402044450157e-02,1.760695011087095307e-01,-4.780323950911500863e-01,3.633866776081693950e-01
2.052799999999999869e+01,-2.447808670414287902e-02,1.764821709105247050e-01,-4.758597380000997856e-01,3.636655674583854636e-01
2.053999999999999915e+01,-1.820669794365587651e-02,1.772463269185627910e-01,-4.739638820252444207e-01,3.640098572960456802e-01
2.055199999999999960e+01,-1.218945181441113967e-02,1.783017167318551310e-01,-4.723055176231817365e-01,3.644253255014092696e-01
2.056400000000000006e+01,-6.406890053547643904e-03,1.795990769189899083e-01,-4.708515382004063166e-01,3.649146419639902050e-01
2.057600000000000051e+01,-8.403658873876521107e-04,1.810979063169039227e-01,-4.695739924273324983e-01,3.654783851035096620e-01
2.058800000000000097e+01,4.527671543534936283e-03,1.827647255533748905e-01,-4.684492083726310430e-01,3.661157489576475355e-01
2.060000000000000142e+01,9.713552929107062417e-03,1.845717117764781867e-01,-4.674570680499790520e-01,3.668250345308993743e-01
2.061199999999999832e+01,1.473236169503257253e-02,1.864956233120766971e-01,-4.665804095562529619e-01,3.676039906261154844e-01
2.062399999999999878e+01,1.959796412581665814e-02,1.885169484386547412e-01,-4.658045354607799893e-01,3.684500494131583426e-01
2.063599999999999923e+01,2.432307156603733672e-02,1.906192283736666826e-01,-4.651168087131976603e-01,3.693604882240373311e-01
2.064799999999999969e+01,2.891931870067229737e-02,1.927885159150209415e-01,-4.645063201906368122e-01,3.703325395618706772e-01
2.066000000000000014e+01,3.339734838330227218e-02,1.950129402530264289e-01,-4.639636146978977083e-01,3.713634647297445746e-01
2.067200000000000060e+01,3.776689683693867927e-02,1.972823553826598686e-01,-4.634804646070025402e-01,3.724506019116374245e-01
2.068400000000000105e+01,4.203687584410786826e-02,1.995880546007035572e-01,-4.630496823309738774e-01,3.735913963462235698e-01
2.069600000000000151e+01,4.621545009172855351e-02,2.019225374272308193e-01,-4.626649644954265450e-01,3.747834179960776169e-01
2.070799999999999841e+01,5.031010863801936572e-02,2.042793184645143589e-01,-4.623207620289804809e-01,3.760243705425436733e-01
2.071999999999999886e+01,5.432773026937144645e-02,2.066527698890645026e-01,-4.620121715015326758e-01,3.773120944232550289e-01
2.073199999999999932e+01,5.827464280246294481e-02,2.090379910108005057e-01,-4.617348439253350922e-01,3.786445658416230375e-01
2.074399999999999977e+01,6.215667660630646435e-02,2.114306998247168501e-01,-4.614849079528136055e-01,3.800198931161183347e-01
2.075600000000000023e+01,6.597921270955456330e-02,2.138271424407920673e-01,-4.612589049784060480e-01,3.814363113377562953e-01
2.076800000000000068e+01,6.974722598385439676e-02,2.162240171132999156e-01,-4.610537341158953972e-01,3.828921760175474365e-01
2.078000000000000114e+01,7.346532381037354509e-02,2.186184102866229884e-01,-4.608666053936911200e-01,3.843859562009859787e-01
2.079200000000000159e+01,7.713778070829434286e-02,2.210077425182464805e-01,-4.606949998118367584e-01,3.859162273802289045e-01
2.080399999999999849e+01,8.076856930810000224e-02,2.233897226097660560e-01,-4.605366351460547514e-01,3.874816644289333367e-01
2.081599999999999895e+01,8.436138810160155599e-02,2.257623085430836007e-01,-4.603894365810509703e-01,3.890810347097930499e-01
2.082799999999999940e+01,8.791968626944568488e-02,2.281236740976321509e-01,-4.602515114142700092e-01,3.907131914511920989e-01
2.083999999999999986e+01,9.144668592946350594e-02,2.304721802330603198e-01,-4.601211272015701681e-01,3.923770674511140588e-01
2.085200000000000031e+01,9.494540211563216869e-02,2.328063504588810118e-01,-4.599966928217463780e-01,3.940716691398071791e-01
2.086400000000000077e+01,9.841866067292460996e-02,2.351248495994497367e-01,-4.598767420239115999e-01,3.957960710137112814e-01
2.087600000000000122e+01,1.018691143691246581e-01,2.374264653924535173e-01,-4.597599190929055335e-01,3.975494104406850915e-01
2.088800000000000168e+01,1.052992573855423275e-01,2.397100925187682363e-01,-4.596449663266138352e-01,3.993308828274350075e-01
2.089999999999999858e+01,1.087114383478262475e-01,2.419747186984031739e-01,-4.595307130676679064e-01,4.011397371349710861e-01
2.091199999999999903e+01,1.121078721028134217e-01,2.442194125373505220e-01,-4.594160660719958655e-01,4.029752717240186466e-01
2.092399999999999949e+01,1.154906503259652412e-01,2.464433128980355325e-01,-4.593000010303844860e-01,4.048368305108911991e-01
2.093599999999999994e+01,1.188617511260514348e-01,2.486456195466429930e-01,-4.591815550867952012e-01,4.067237994129621059e-01
2.094800000000000040e+01,1.222230477294030671e-01,2.508255849279782401e-01,-4.590598202206288003e-01,4.086356030634532566e-01
2.096000000000000085e+01,1.255763163416209471e-01,2.529825068950591893e-01,-4.589339373795316979e-01,4.105717017750104558e-01
2.097200000000000131e+01,1.289232432767173642e-01,2.551157222798850488e-01,-4.588030912658764837e-01,4.125315887329625286e-01
2.098400000000000176e+01,1.322654314363188588e-01,2.572246011702480906e-01,-4.586665056936476415e-01,4.145147873995749244e-01
2.099599999999999866e+01,1.356044061830880276e-01,2.593085418293685773e-01,-4.585234394444023809e-01,4.165208491120875323e-01
2.100799999999999912e+01,1.389416206872852166e-01,2.613669661509083753e-01,-4.583731825606470189e-01,4.185493508582033839e-01
2.101999999999999957e+01,1.422784607894334863e-01,2.633993155939703401e-01,-4.582150530235316599e-01,4.205998932140029289e-01
2.103200000000000003e+01,1.456162494265696439e-01,2.654050475328656455e-01,-4.580483937688240581e-01,4.226720984302860806e-01
2.104400000000000048e+01,1.489562506635244699e-01,2.673836319720935828e-01,-4.578725700012688526e-01,4.247656086544376319e-01
2.105600000000000094e+01,1.522996733648760426e-01,2.693345485811465823e-01,-4.576869667726671254e-01,4.268800842759578051e-01
2.106800000000000139e+01,1.556476745429242470e-01,2.712572840076692970e-01,-4.574909867934757179e-01,4.290152023847306206e-01
2.107999999999999829e+01,1.590013624040749751e-01,2.731513294424937621e-01,-4.572840484515886539e-01,4.311706553320099333e-01
2.109199999999999875e+01,1.623617991295863150e-01,2.750161783965361928e-01,-4.570655840152628713e-01,4.333461493849470325e-01
2.110399999999999920e+01,1.657300034030488867e-01,2.768513246740597067e-01,-4.568350380000554822e-01,4.355414034661925227e-01
2.111599999999999966e+01,1.691069527133755579e-01,2.786562605144795590e-01,-4.565918656820602273e-01,4.377561479709140557e-01
2.112800000000000011e+01,1.724935854434729576e-01,2.804304748834068883e-01,-4.563355317419293122e-01,4.399901236540737504e-01
2.114000000000000057e+01,1.758908027747789760e-01,2.821734518983973206e-01,-4.560655090260051781e-01,4.422430805815527055e-01
2.115200000000000102e+01,1.792994704011462159e-01,2.838846693712540614e-01,-4.557812774125475364e-01,4.445147771391024238e-01
2.116400000000000148e+01,1.827204200898488451e-01,2.855635974546482658e-01,-4.554823227723741041e-01,4.468049790937027588e-01
2.117599999999999838e+01,1.861544510776094452e-01,2.872096973868603076e-01,-4.551681360146698219e-01,4.491134587023176139e-01
2.118799999999999883e+01,1.896023313334964377e-01,2.888224203101563692e-01,-4.548382122094500324e-01,4.514399938633674170e-01
2.119999999999999929e+01,1.930647986795737958e-01,2.904012061736810368e-01,-4.544920497796437475e-01,4.537843673068185368e-01
2.121199999999999974e+01,1.965425617942023473e-01,2.919454826922862067e-01,-4.541291497559884482e-01,4.561463658187687176e-01
2.122400000000000020e+01,2.000363010840473244e-01,2.934546643771411834e-01,-4.537490150892705132e-01,4.585257794971525080e-01
2.123600000000000065e+01,2.035466694676903721e-01,2.949281516005883286e-01,-4.533511500145813722e-01,4.609224010351042899e-01
2.124800000000000111e+01,2.070742930212572386e-01,2.963653297329774672e-01,-4.529350594632901572e-01,4.633360250288687254e-01
2.126000000000000156e+01,2.106197715588785935e-01,2.977655682969342354e-01,-4.525002485185141143e-01,4.657664473075774358e-01
2.127199999999999847e+01,2.141836790896407550e-01,2.991282201813132424e-01,-4.520462219108102309e-01,4.682134642820522941e-01
2.128399999999999892e+01,2.177665641998925150e-01,3.004526208757125616e-01,-4.515724835506903512e-01,4.706768723103235130e-01
2.129599999999999937e+01,2.213689503337706310e-01,3.017380877481191104e-01,-4.510785360955013590e-01,4.731564670774719428e-01
2.130799999999999983e+01,2.249913360007044227e-01,3.029839193475187265e-01,-4.505638805479241227e-01,4.756520429877488798e-01
2.132000000000000028e+01,2.286341948992465789e-01,3.041893947248603403e-01,-4.500280158843386058e-01,4.781633925670019658e-01
2.133200000000000074e+01,2.322979759510656328e-01,3.053537727990041084e-01,-4.494704387108324206e-01,4.806903058733330569e-01
2.134400000000000119e+01,2.359831032623886382e-01,3.064762917322370606e-01,-4.488906429455351010e-01,4.832325699146001186e-01
2.135600000000000165e+01,2.396899760172345739e-01,3.075561683275047642e-01,-4.482881195257962803e-01,4.857899680708521739e-01
2.136799999999999855e+01,2.434189682805797672e-01,3.085925974597615862e-01,-4.476623561389391215e-01,4.883622795201938982e-01
2.137999999999999901e+01,2.471704287407736622e-01,3.095847515122255311e-01,-4.470128369757837561e-01,4.909492786667984388e-01
2.139199999999999946e+01,2.509446803650303703e-01,3.105317798554585451e-01,-4.463390425060413946e-01,4.935507345695006043e-01
2.140399999999999991e+01,2.547420199957619036e-01,3.114328083193633190e-01,-4.456404492748344826e-01,4.961664103698388284e-01
2.141600000000000037e+01,2.585627178702008533e-01,3.122869387116160578e-01,-4.449165297200833313e-01,4.987960627182959628e-01
2.142800000000000082e+01,2.624070170589166695e-01,3.130932483445668102e-01,-4.441667520101615363e-01,5.014394411975043875e-01
2.144000000000000128e+01,2.662751328431268716e-01,3.138507895916696766e-01,-4.433905799017596738e-01,5.040962877414634224e-01
2.145199999999999818e+01,2.701672520173465375e-01,3.145585894546332750e-01,-4.425874726177835838e-01,5.067663360497275393e-01
2.146399999999999864e+01,2.740835321177755302e-01,3.152156491698188123e-01,-4.417568847454365066e-01,5.094493109955049448e-01
2.147599999999999909e+01,2.780241005743645522e-01,3.158209438363360766e-01,-4.408982661544207926e-01,5.121449280268135507e-01
2.148799999999999955e+01,2.819890537920999307e-01,3.163734220673607433e-01,-4.400110619357655017e-01,5.148528925600354134e-01
2.150000000000000000e+01,2.859784561658563207e-01,3.168720056715365607e-01,-4.390947123614614145e-01,5.175728993646439013e-01
2.151200000000000045e+01,2.899923389994136236e-01,3.173155893760106760e-01,-4.381486528655308410e-01,5.203046319388340279e-01
2.152400000000000091e+01,2.940306993753678544e-01,3.177030405699728943e-01,-4.371723140469551128e-01,5.230477618750121183e-01
2.153600000000000136e+01,2.980934989237958854e-01,3.180331990970143852e-01,-4.361651216953243981e-01,5.258019482146876200e-01
2.154800000000000182e+01,3.021806625304964689e-01,3.183048770816955808e-01,-4.351264968398602662e-01,5.285668367921784183e-01
2.155999999999999872e+01,3.062920769529031695e-01,3.185168588004456680e-01,-4.340558558228077568e-01,5.313420595665386825e-01
2.157199999999999918e+01,3.104275893698052458e-01,3.186679006053597663e-01,-4.329526103980536056e-01,5.341272339412346248e-01
2.158399999999999963e+01,3.145870058398838043e-01,3.187567308907142127e-01,-4.318161678563018357e-01,5.369219620713365781e-01
2.159600000000000009e+01,3.187700896835040654e-01,3.187820501210721358e-01,-4.306459311776343335e-01,5.397258301576798312e-01
2.160800000000000054e+01,3.229765597818453626e-01,3.187425309199251600e-01,-4.294412992131429463e-01,5.425384077278908590e-01
2.162000000000000099e+01,3.272060887899965187e-01,3.186368182211588018e-01,-4.282016668968310902e-01,5.453592469039453272e-01
2.163200000000000145e+01,3.314583012721754596e-01,3.184635294939546224e-01,-4.269264254892124466e-01,5.481878816564227375e-01
2.164399999999999835e+01,3.357327717446967896e-01,3.182212550421877340e-01,-4.256149628543913765e-01,5.510238270449769882e-01
2.165599999999999881e+01,3.400290226439605656e-01,3.179085583875685961e-01,-4.242666637721589917e-01,5.538665784457116326e-01
2.166799999999999926e+01,3.443465221971561685e-01,3.175239767454030582e-01,-4.228809102870099146e-01,5.567156107650613750e-01
2.167999999999999972e+01,3.486846822230236231e-01,3.170660215883721600e-01,-4.214570820959736563e-01,5.595703776407876529e-01
2.169200000000000017e+01,3.530428558356565327e-01,3.165331793241416003e-01,-4.199945569771846299e-01,5.624303106304938682e-01
2.170400000000000063e+01,3.574203350697497950e-01,3.159239120775737542e-01,-4.184927112613717193e-01,5.652948183879713540e-01
2.171600000000000108e+01,3.618163484254219298e-01,3.152366585968517931e-01,-4.169509203484645932e-01,5.681632858283298670e-01
2.172800000000000153e+01,3.662300583270748922e-01,3.144698352840255007e-01,-4.153685592715330999e-01,5.710350732824904796e-01
2.173999999999999844e+01,3.706605585060173125e-01,3.136218373687401084e-01,-4.137450033106161440e-01,5.739095156421252231e-01
2.175199999999999889e+01,3.751068713044462544e-01,3.126910402240084541e-01,-4.120796286587222190e-01,5.767859214961962300e-01
2.176399999999999935e+01,3.795679449044452869e-01,3.116758008463709761e-01,-4.103718131427167015e-01,5.796635722604245311e-01
2.177599999999999980e+01,3.840426504922053730e-01,3.105744594945212267e-01,-4.086209370017543363e-01,5.825417213011079287e-01
2.178800000000000026e+01,3.885297793478351136e-01,3.093853415148701824e-01,-4.068263837258432880e-01,5.854195930552140714e-01
2.180000000000000071e+01,3.930280398789057217e-01,3.081067593561233608e-01,-4.049875409575821594e-01,5.882963821486040246e-01
2.181200000000000117e+01,3.975360546004996221e-01,3.067370147816217973e-01,-4.031038014596908803e-01,5.911712525145740305e-01
2.182400000000000162e+01,4.020523570594835561e-01,3.052744013026955083e-01,-4.011745641514322669e-01,5.940433365152714140e-01
2.183599999999999852e+01,4.065753887259329069e-01,3.037172068356442933e-01,-3.991992352168299285e-01,5.969117340687676299e-01
2.184799999999999898e+01,4.111034958489928615e-01,3.020637165948389935e-01,-3.971772292876143973e-01,5.997755117846866879e-01
2.185999999999999943e+01,4.156349262918466181e-01,3.003122162454367472e-01,-3.951079707040421884e-01,6.026337021119337889e-01
2.187199999999999989e+01,4.201678263550828740e-01,2.984609953196967758e-01,-3.929908948564510562e-01,6.054853025020958679e-01
