Frequency, Re(SMin1Min1), Im(SMin1Min1), Re(SMax1Min1), Im(SMax1Min1)
2.000000000000000000e+01,-4.434145286632538985e-02,-3.972182677085469432e-02,-4.184284705596323928e-01,2.024030747406258268e-01
2.001200000000000045e+01,-6.205019762726737137e-02,-2.684922271687691098e-02,-4.267273269358086152e-01,1.970447021928526943e-01
2.002400000000000091e+01,-7.837647813274169206e-02,-1.253959865245993580e-02,-4.354749071057656962e-01,1.925895414861540644e-01
2.003600000000000136e+01,-9.318875032589658824e-02,3.014740055561318261e-03,-4.445562356904083079e-01,1.890650950739518610e-01
2.004799999999999827e+01,-1.063886619628369168e-01,1.960946359634949815e-02,-4.538570328995500391e-01,1.864809952123109293e-01
2.005999999999999872e+01,-1.179114194805330612e-01,3.703483173419793578e-02,-4.632668582047366757e-01,1.848301544568090871e-01
2.007199999999999918e+01,-1.277247332660199075e-01,5.508191148180945768e-02,-4.726817766092361039e-01,1.840904860534116061e-01
2.008399999999999963e+01,-1.358265656073530114e-01,7.354809318663504958e-02,-4.820064575818698849e-01,1.842270267733456812e-01
2.009600000000000009e+01,-1.422419620937538931e-01,9.224169372135390677e-02,-4.911556713117232742e-01,1.851942904357730124e-01
2.010800000000000054e+01,-1.470192687707488899e-01,1.109855333621791312e-01,-5.000551952416697477e-01,1.869386923718626137e-01
2.012000000000000099e+01,-1.502260281511550444e-01,1.296194631753435633e-01,-5.086421818010167240e-01,1.894009088369952298e-01
2.013200000000000145e+01,-1.519448145852483611e-01,1.480018941987349124e-01,-5.168650640872705093e-01,1.925180658067841277e-01
2.014399999999999835e+01,-1.522692221101700494e-01,1.660104341744941259e-01,-5.246830901083570087e-01,1.962256840224255727e-01
2.015599999999999881e+01,-1.513001640092985212e-01,1.835417713464046197e-01,-5.320655796617390632e-01,2.004593378736314879e-01
2.016799999999999926e+01,-1.491425897772903353e-01,2.005109598095841938e-01,-5.389909933539339670e-01,2.051560122263812458e-01
2.017999999999999972e+01,-1.459026769180243599e-01,2.168502606318530868e-01,-5.454458932434578244e-01,2.102551623079348397e-01
2.019200000000000017e+01,-1.416855149122254742e-01,2.325076816443048533e-01,-5.514238615347866190e-01,2.156994969296467946e-01
2.020400000000000063e+01,-1.365932679449770870e-01,2.474453405354646307e-01,-5.569244296509026082e-01,2.214355150448633902e-01
2.021600000000000108e+01,-1.307237814369137108e-01,2.616377542144470159e-01,-5.619520563354815090e-01,2.274138307163827422e-01
2.022800000000000153e+01,-1.241695840683597896e-01,2.750701350962111436e-01,-5.665151811365822798e-01,2.335893230042808688e-01
2.023999999999999844e+01,-1.170172303747470666e-01,2.877367539211480585e-01,-5.706253692143460343e-01,2.399211460893973524e-01
2.025199999999999889e+01,-1.093469275338267710e-01,2.996394101254754028e-01,-5.742965550679840492e-01,2.463726320275649306e-01
2.026399999999999935e+01,-1.012323921587993669e-01,3.107860351968034229e-01,-5.775443864290722429e-01,2.529111146334842575e-01
2.027599999999999980e+01,-9.274088745397736366e-02,3.211894419960918401e-01,-5.803856650123159211e-01,2.595076986945619724e-01
2.028800000000000026e+01,-8.393339693072390806e-02,3.308662235351746972e-01,-5.828378777732827754e-01,2.661369944215659089e-01
2.030000000000000071e+01,-7.486489724066529294e-02,3.398357978203859209e-01,-5.849188104982342429e-01,2.727768330211136627e-01
2.031200000000000117e+01,-6.558469900179715595e-02,3.481195906895214742e-01,-5.866462346603907863e-01,2.794079756779112023e-01
2.032400000000000162e+01,-5.613683041666584633e-02,3.557403456484409254e-01,-5.880376582697256493e-01,2.860138251323495751e-01
2.033599999999999852e+01,-4.656044380342241884e-02,3.627215481529695862e-01,-5.891101317099987078e-01,2.925801464431808663e-01
2.034799999999999898e+01,-3.689022978569028721e-02,3.690869512251690465e-01,-5.898801001301078317e-01,2.990948014097852825e-01
2.035999999999999943e+01,-2.715682780268719593e-02,3.748601894494111852e-01,-5.903632947086476790e-01,3.055474994469270511e-01
2.037199999999999989e+01,-1.738722483668643515e-02,3.800644690235401857e-01,-5.905746559466642509e-01,3.119295663996728418e-01
2.038400000000000034e+01,-7.605136876626740136e-03,3.847223224636222572e-01,-5.905282829974261016e-01,3.182337317975273971e-01
2.039600000000000080e+01,2.168630279966080650e-03,3.888554176401722295e-01,-5.902374038694018221e-01,3.244539343179644875e-01
2.040800000000000125e+01,1.191584265818075236e-02,3.924844119626973438e-01,-5.897143621121766488e-01,3.305851447083740235e-01
2.042000000000000171e+01,2.162052269412472610e-02,3.956288436604040171e-01,-5.889706162997505601e-01,3.366232050568012668e-01
2.043199999999999861e+01,3.126865636394254855e-02,3.983070531873971754e-01,-5.880167492556970243e-01,3.425646830671874588e-01
2.044399999999999906e+01,4.084792173958275152e-02,4.005361287848632212e-01,-5.868624845200657303e-01,3.484067398522446846e-01
2.045599999999999952e+01,5.034743734577310642e-02,4.023318711496519651e-01,-5.855167080430780935e-01,3.541470096805774959e-01
2.046799999999999997e+01,5.975752832581587154e-02,4.037087729831086991e-01,-5.839874935122856270e-01,3.597834900834260274e-01
2.048000000000000043e+01,6.906950815190401882e-02,4.046800099355180036e-01,-5.822821300864853278e-01,3.653144407238662628e-01
2.049200000000000088e+01,7.827547342154482501e-02,4.052574401192101106e-01,-5.804071516303961342e-01,3.707382894447763810e-01
2.050400000000000134e+01,8.736810911737602492e-02,4.054516099638721949e-01,-5.783683668289311131e-01,3.760535439313422712e-01
2.051599999999999824e+01,9.634050157967638528e-02,4.052717647281298685e-01,-5.761708898186601591e-01,3.812587074419144795e-01
2.052799999999999869e+01,1.051859562973819634e-01,4.047258624968821938e-01,-5.738191712177208581e-01,3.863521970722323950e-01
2.053999999999999915e+01,1.138978174812373262e-01,4.038205909895616896e-01,-5.713170296746523658e-01,3.913322630185525619e-01
2.055199999999999960e+01,1.224692862095649315e-01,4.025613870125113736e-01,-5.686676843038952489e-01,3.961969072928706592e-01
2.056400000000000006e+01,1.308932337312524730e-01,4.009524589305077380e-01,-5.658737886438454101e-01,4.009438003181153842e-01
2.057600000000000051e+01,1.391620062658159296e-01,3.989968131405360885e-01,-5.629374670779609957e-01,4.055701937936898038e-01
2.058800000000000097e+01,1.472672173588699396e-01,3.966962862441502091e-01,-5.598603550178158361e-01,4.100728281768460937e-01
2.060000000000000142e+01,1.551995235227841829e-01,3.940515854801596163e-01,-5.566436445801529187e-01,4.144478330802072730e-01
2.061199999999999832e+01,1.629483785496730064e-01,3.910623410489089125e-01,-5.532881380227117063e-01,4.186906188529195827e-01
2.062399999999999878e+01,1.705017615310046586e-01,3.877271753157654488e-01,-5.497943118654010641e-01,4.227957576124972694e-01
2.063599999999999923e+01,1.778458733122224578e-01,3.840437955974133621e-01,-5.461623954492492716e-01,4.267568520564630763e-01
2.064799999999999969e+01,1.849647959130086006e-01,3.800091194388443006e-01,-5.423924687156986835e-01,4.305663905531869617e-01
2.066000000000000014e+01,1.918401094766068737e-01,3.756194440860804451e-01,-5.384845852687311085e-01,4.342155873563241508e-01
2.067200000000000060e+01,1.984504617383686664e-01,3.708706754296535735e-01,-5.344389283590089690e-01,4.376942074047691089e-01
2.068400000000000105e+01,2.047710861000246463e-01,3.657586361918674922e-01,-5.302560093472566960e-01,4.409903761987610804e-01
2.069600000000000151e+01,2.107732665456633625e-01,3.602794787249997133e-01,-5.259369204936180653e-01,4.440903768797299089e-01
2.070799999999999841e+01,2.164237514163797615e-01,3.544302346529696335e-01,-5.214836565778736555e-01,4.469784391588916272e-01
2.071999999999999886e+01,2.216841242863165362e-01,3.482095417677824045e-01,-5.168995228135928599e-01,4.496365285078898211e-01
2.073199999999999932e+01,2.265101499962684506e-01,3.416185979874634127e-01,-5.121896495902064084e-01,4.520441495324156178e-01
2.074399999999999977e+01,2.308511288421264129e-01,3.346624023205563292e-01,-5.073616373698595083e-01,4.541781853173996741e-01
2.075600000000000023e+01,2.346493139936411676e-01,3.273513525810428648e-01,-5.024263568633825505e-01,4.560128055025237659e-01
2.076800000000000068e+01,2.378394788729255860e-01,3.197032768799011881e-01,-4.973989291852797257e-01,4.575194907253931076e-01
2.078000000000000114e+01,2.403487651609697295e-01,3.117459768902949291e-01,-4.922999060707728969e-01,4.586672405663573260e-01
2.079200000000000159e+01,2.420970007059595475e-01,3.035203491772068829e-01,-4.871566584297971625e-01,4.594230565267531374e-01
2.080399999999999849e+01,2.429977507873786746e-01,2.950841167084626293e-01,-4.820049582260781396e-01,4.597528201125239411e-01
2.081599999999999895e+01,2.429604530979715127e-01,2.865161318701167636e-01,-4.768906982428106622e-01,4.596227159497920933e-01
2.082799999999999940e+01,2.418940761107047643e-01,2.779210863907875528e-01,-4.718716301118723866e-01,4.590013745846729942e-01
2.083999999999999986e+01,2.397128088498810261e-01,2.694342617065604850e-01,-4.670189069397676085e-01,4.578629171415471988e-01
2.085200000000000031e+01,2.363442943280287256e-01,2.612256587283518505e-01,-4.624180907227936621e-01,4.561910546020339075e-01
2.086400000000000077e+01,2.317407905139235724e-01,2.535024597076387387e-01,-4.581691342185333915e-01,4.539843000005777118e-01
2.087600000000000122e+01,2.258932894420492277e-01,2.465083389717864226e-01,-4.543846987748724198e-01,4.512621589505240727e-01
2.088800000000000168e+01,2.188479507849283578e-01,2.405177679339443597e-01,-4.511860798375151305e-01,4.480718450079574366e-01
2.089999999999999858e+01,2.107231621511905795e-01,2.358233660148187083e-01,-4.486960710962626941e-01,4.444946223457234002e-01
2.091199999999999903e+01,2.017242130070519002e-01,2.327148369688973872e-01,-4.470284201925771583e-01,4.406503725646246372e-01
2.092399999999999949e+01,1.921512948128189791e-01,2.314494065942195589e-01,-4.462742068063841328e-01,4.366985745905013760e-01
2.093599999999999994e+01,1.823959424027355725e-01,2.322160500073859046e-01,-4.464864985460735292e-01,4.328338335026174488e-01
2.094800000000000040e+01,1.729218981952725942e-01,2.350987934360880272e-01,-4.476658039383105137e-01,4.292746782313139331e-01
2.096000000000000085e+01,1.642292553238652586e-01,2.400469710470333196e-01,-4.497497018979677574e-01,4.262457103702494976e-01
2.097200000000000131e+01,1.568053411766878458e-01,2.468610388316052617e-01,-4.526100217306028850e-01,4.239551215146057372e-01
2.098400000000000176e+01,1.510706944367087301e-01,2.552002173782092487e-01,-4.560596987210912556e-01,4.225714660406076351e-01
2.099599999999999866e+01,1.473314449030543039e-01,2.646129441500837398e-01,-4.598690906784211885e-01,4.222045082034369679e-01
2.100799999999999912e+01,1.457486315280451805e-01,2.745846541109582817e-01,-4.637889029845541633e-01,4.228943289663673055e-01
2.101999999999999957e+01,1.463304083229116093e-01,2.845925287066184417e-01,-4.675750340065211730e-01,4.246107568347175509e-01
2.103200000000000003e+01,1.489465982378602171e-01,2.941556709432526229e-01,-4.710104026421806922e-01,4.272624159017265333e-01
2.104400000000000048e+01,1.533594528732458162e-01,3.028718781055865228e-01,-4.739201573181666682e-01,4.307123993445965415e-01
2.105600000000000094e+01,1.592617803299073986e-01,3.104371325117939451e-01,-4.761788649476481061e-01,4.347965662752247828e-01
2.106800000000000139e+01,1.663141262032349910e-01,3.166488083944655196e-01,-4.777103785675543834e-01,4.393408116251163453e-01
2.107999999999999829e+01,1.741753224387324883e-01,3.213967638927942017e-01,-4.784824128647663932e-01,4.441748840765474271e-01
2.109199999999999875e+01,1.825239019330763823e-01,3.246475291654663531e-01,-4.784982539494189169e-01,4.491417612806630211e-01
2.110399999999999920e+01,1.910704608507122759e-01,3.264262257231787534e-01,-4.777877220821596382e-01,4.541027416481487333e-01
2.111599999999999966e+01,1.995625773625573918e-01,3.267994952229226757e-01,-4.763988617959042382e-01,4.589390818724243815e-01
2.112800000000000011e+01,2.077844490486683848e-01,3.258612747079622229e-01,-4.743911612862505289e-01,4.635512388423396746e-01
2.114000000000000057e+01,2.155533188856758875e-01,3.237221121185194228e-01,-4.718305729033553386e-01,4.678567118587741991e-01
2.115200000000000102e+01,2.227143594444725982e-01,3.205019786073787791e-01,-4.687862670944044630e-01,4.717872800722318072e-01
2.116400000000000148e+01,2.291352176201134350e-01,3.163261508704797165e-01,-4.653288784594698524e-01,4.752862015380767136e-01
2.117599999999999838e+01,2.347010179440513766e-01,3.113235976589201481e-01,-4.615299429805602704e-01,4.783057442120611236e-01
2.118799999999999883e+01,2.393103283941319659e-01,3.056273022669300787e-01,-4.574622289989947466e-01,4.808052769342864852e-01
2.119999999999999929e+01,2.428724074472078942e-01,2.993760050239998027e-01,-4.532006921823958367e-01,4.827500584853560150e-01
2.121199999999999974e+01,2.453059512304160694e-01,2.927169025519487100e-01,-4.488238110055602914e-01,4.841108128683843659e-01
2.122400000000000020e+01,2.465395133144276940e-01,2.858088619292015187e-01,-4.444150695811378560e-01,4.848641529151656582e-01
2.123600000000000065e+01,2.465137429804982461e-01,2.788256820452886253e-01,-4.400643425544286669e-01,4.849938949911500874e-01
2.124800000000000111e+01,2.451855454742032370e-01,2.719588580561705382e-01,-4.358689024067219364e-01,4.844932775904424727e-01
2.126000000000000156e+01,2.425341732198805222e-01,2.654191878777001357e-01,-4.319337200547554989e-01,4.833680386544317309e-01
2.127199999999999847e+01,2.385690741480144816e-01,2.594364293384298636e-01,-4.283706810288104294e-01,4.816402047935894881e-01
2.128399999999999892e+01,2.333390238203668643e-01,2.542561232113920155e-01,-4.252963185832328574e-01,4.793522902180838430e-01
2.129599999999999937e+01,2.269416459529235708e-01,2.501327171086755174e-01,-4.228277096978246830e-01,4.765713972950975652e-01
2.130799999999999983e+01,2.195319195689439951e-01,2.473183536560542573e-01,-4.210763337218338953e-01,4.733924809056543337e-01
2.132000000000000028e+01,2.113277859361968603e-01,2.460472133466370948e-01,-4.201399916088567887e-01,4.699398444094820548e-01
2.133200000000000074e+01,2.026106863984828699e-01,2.465161643150907134e-01,-4.200933287344005285e-01,4.663658680941621948e-01
2.134400000000000119e+01,1.937190138604495682e-01,2.488635876000699354e-01,-4.209780372616361288e-01,4.628461374788654936e-01
2.135600000000000165e+01,1.850332443171397445e-01,2.531493714457528355e-01,-4.227942978858965084e-01,4.595706146277196980e-01
2.136799999999999855e+01,1.769529697126686896e-01,2.593398047738044165e-01,-4.254952584832913387e-01,4.567312657883993987e-01
2.137999999999999901e+01,1.698679428264736058e-01,2.673010183701073905e-01,-4.289861497942397683e-01,4.545074709062398854e-01
2.139199999999999946e+01,1.641270405097643159e-01,2.768034703847353506e-01,-4.331289287764885643e-01,4.530513162729064014e-01
2.140399999999999991e+01,1.600100903607693248e-01,2.875378804330646076e-01,-4.377522390277193698e-01,4.524752002297418585e-01
2.141600000000000037e+01,1.577072889696729263e-01,2.991405474936655318e-01,-4.426653007502351911e-01,4.528438705473818437e-01
2.142800000000000082e+01,1.573094171411700548e-01,3.112239469390422064e-01,-4.476734840250772840e-01,4.541721062027049838e-01
2.144000000000000128e+01,1.588097039995411686e-01,3.234075764458210211e-01,-4.525930682782323689e-01,4.564280438857009625e-01
2.145199999999999818e+01,1.621157992427262051e-01,3.353444496607645431e-01,-4.572630956450691175e-01,4.595410325134663410e-01
2.146399999999999864e+01,1.670686167744944717e-01,3.467401335121323425e-01,-4.615530857963512368e-01,4.634122064689843445e-01
2.147599999999999909e+01,1.734641863476059642e-01,3.573631676724478012e-01,-4.653663644234703467e-01,4.679258263257766171e-01
2.148799999999999955e+01,1.810750234323434960e-01,3.670474542662727768e-01,-4.686395668311027496e-01,4.729597574438896834e-01
2.150000000000000000e+01,1.896685304818339912e-01,3.756883569681748192e-01,-4.713393489393363223e-01,4.783940306702376133e-01
2.151200000000000045e+01,1.990211304480213605e-01,3.832347036907432503e-01,-4.734574607753626596e-01,4.841170348398712298e-01
2.152400000000000091e+01,2.089278652869339947e-01,3.896787811152344627e-01,-4.750052047139721179e-01,4.900293763700351302e-01
2.153600000000000136e+01,2.192079005872930031e-01,3.950459755867498646e-01,-4.760080372507281554e-01,4.960457459823316984e-01
2.154800000000000182e+01,2.297067451646795377e-01,3.993851729460237143e-01,-4.765007850405931777e-01,5.020952660275911361e-01
2.155999999999999872e+01,2.402960922359529683e-01,4.027605294832590777e-01,-4.765236990237944337e-01,5.081207997419159295e-01
2.157199999999999918e+01,2.508721152575916213e-01,4.052448402378985293e-01,-4.761193915718699432e-01,5.140776388090219085e-01
2.158399999999999963e+01,2.613528950096659087e-01,4.069144744238221145e-01,-4.753305909548078967e-01,5.199318911103505414e-01
2.159600000000000009e+01,2.716754774862547017e-01,4.078457034182614849e-01,-4.741985918833135916e-01,5.256587948991068293e-01
2.160800000000000054e+01,2.817929005808338938e-01,4.081121849558645986e-01,-4.727622635508118565e-01,5.312411036812656473e-01
2.162000000000000099e+01,2.916713971206283396e-01,4.077833585924808824e-01,-4.710574823100254216e-01,5.366676230454320295e-01
2.163200000000000145e+01,3.012878854081031399e-01,4.069235286440496813e-01,-4.691168734475253954e-01,5.419319361419132619e-01
2.164399999999999835e+01,3.106277923392835594e-01,4.055914452473464160e-01,-4.669697679239647181e-01,5.470313254452350282e-01
2.165599999999999881e+01,3.196832121416292583e-01,4.038402317210876835e-01,-4.646423010304041035e-01,5.519658810954806150e-01
2.166799999999999926e+01,3.284513793815332372e-01,4.017175414372094466e-01,-4.621575984874090048e-01,5.567377770173858043e-01
2.167999999999999972e+01,3.369334226066675320e-01,3.992658574192402554e-01,-4.595360107913589731e-01,5.613506923366579082e-01
2.169200000000000017e+01,3.451333605187464348e-01,3.965228721832745329e-01,-4.567953685838222477e-01,5.658093552506772150e-01
2.170400000000000063e+01,3.530573028121934409e-01,3.935219042276850709e-01,-4.539512408578059155e-01,5.701191880046978522e-01
2.171600000000000108e+01,3.607128206396200687e-01,3.902923218012922524e-01,-4.510171844296686494e-01,5.742860340146253018e-01
2.172800000000000153e+01,3.681084556969247967e-01,3.868599550039906743e-01,-4.480049778132180194e-01,5.783159508680377758e-01
2.173999999999999844e+01,3.752533413115802796e-01,3.832474847273581453e-01,-4.449248358911772616e-01,5.822150555815561734e-01
2.175199999999999889e+01,3.821569131809814945e-01,3.794748021432889917e-01,-4.417856039675464586e-01,5.859894109146410734e-01
2.176399999999999935e+01,3.888286912914125093e-01,3.755593359819708876e-01,-4.385949312009395085e-01,5.896449436592823279e-01
2.177599999999999980e+01,3.952781179467966810e-01,3.715163471651487526e-01,-4.353594242910370782e-01,5.931873876246391841e-01
2.178800000000000026e+01,4.015144397297535361e-01,3.673591918266396750e-01,-4.320847827868718460e-01,5.966222455310093986e-01
2.180000000000000071e+01,4.075466236326977243e-01,3.630995546190839418e-01,-4.287759176291466301e-01,5.999547652504114703e-01
2.181200000000000117e+01,4.133832995838673252e-01,3.587476546641125696e-01,-4.254370546168281808e-01,6.031899268191429631e-01
2.182400000000000162e+01,4.190327232100590771e-01,3.543124266889802754e-01,-4.220718244619915960e-01,6.063324374383832760e-01
2.183599999999999852e+01,4.245027539819516416e-01,3.498016799026086865e-01,-4.186833410085491480e-01,6.093867323069769304e-01
2.184799999999999898e+01,4.298008449331761072e-01,3.452222370654872141e-01,-4.152742690685078397e-01,6.123569796263050868e-01
2.185999999999999943e+01,4.349340409769324456e-01,3.405800560467605598e-01,-4.118468831925662377e-01,6.152470885064068584e-01
2.187199999999999989e+01,4.399089835047121921e-01,3.358803359693904866e-01,-4.084031185521103668e-01,6.180607188068807378e-01
