Frequency, Re(SMin1Min1), Im(SMin1Min1), Re(SMax1Min1), Im(SMax1Min1)
2.000000000000000000e+01,-9.565645116727353181e-02,1.289092488290613514e-02,-4.527611317606748398e-01,1.860307625818932442e-01
2.001200000000000045e+01,-9.619483366784825629e-02,1.579680705248736813e-02,-4.536147834861459782e-01,1.878303375339161752e-01
2.002400000000000091e+01,-9.670902111761962849e-02,1.872570335070542977e-02,-4.544606041771636074e-01,1.896403814360814177e-01
2.003600000000000136e+01,-9.719847235093174997e-02,2.167758232692377357e-02,-4.552985016400394325e-01,1.914608885426608287e-01
2.004799999999999827e+01,-9.766263870219493715e-02,2.465240407168898390e-02,-4.561283834616908228e-01,1.932918523788119958e-01
2.005999999999999872e+01,-9.810096402271895055e-02,2.765011992866558271e-02,-4.569501570237520793e-01,1.951332657372451262e-01
2.007199999999999918e+01,-9.851288470409996778e-02,3.067067220078218553e-02,-4.577637295171307352e-01,1.969851206752273598e-01
2.008399999999999963e+01,-9.889782970848445820e-02,3.371399385064720311e-02,-4.585690079570223232e-01,1.988474085119550649e-01
2.009600000000000009e+01,-9.925522060600776297e-02,3.678000819523615655e-02,-4.593658991983943229e-01,2.007201198263124653e-01
2.010800000000000054e+01,-9.958447161973751904e-02,3.986862859491965144e-02,-4.601543099519491697e-01,2.026032444550342204e-01
2.012000000000000099e+01,-9.988498967844962328e-02,4.297975813686445018e-02,-4.609341468005870301e-01,2.044967714913042411e-01
2.013200000000000145e+01,-1.001561744775872620e-01,4.611328931290280958e-02,-4.617053162163564650e-01,2.064006892838114449e-01
2.014399999999999835e+01,-1.003974185487174209e-01,4.926910369192079309e-02,-4.624677245779453272e-01,2.083149854362797981e-01
2.015599999999999881e+01,-1.006081073378638363e-01,5.244707158686767734e-02,-4.632212781886851372e-01,2.102396468075333757e-01
2.016799999999999926e+01,-1.007876192930657056e-01,5.564705171650442816e-02,-4.639658832951038536e-01,2.121746595120723999e-01
2.017999999999999972e+01,-1.009353259615383414e-01,5.886889086198972970e-02,-4.647014461060401391e-01,2.141200089212435820e-01
2.019200000000000017e+01,-1.010505920967770532e-01,6.211242351843861143e-02,-4.654278728123248388e-01,2.160756796650039335e-01
2.020400000000000063e+01,-1.011327757760010770e-01,6.537747154161910323e-02,-4.661450696070479349e-01,2.180416556343343359e-01
2.021600000000000108e+01,-1.011812285283642254e-01,6.866384378994902504e-02,-4.668529427064254111e-01,2.200179199843131372e-01
2.022800000000000153e+01,-1.011952954742192934e-01,7.197133576192396576e-02,-4.675513983712864530e-01,2.220044551379159736e-01
2.023999999999999844e+01,-1.011743154759362079e-01,7.529972922928723778e-02,-4.682403429291802088e-01,2.240012427905717918e-01
2.025199999999999889e+01,-1.011176213005972047e-01,7.864879186600004513e-02,-4.689196827971443549e-01,2.260082639155062134e-01
2.026399999999999935e+01,-1.010245397950040869e-01,8.201827687342150286e-02,-4.695893245051185327e-01,2.280254987699316394e-01
2.027599999999999980e+01,-1.008943920734291788e-01,8.540792260179699835e-02,-4.702491747200458483e-01,2.300529269021338308e-01
2.028800000000000026e+01,-1.007264937184323972e-01,8.881745216845035595e-02,-4.708991402706670937e-01,2.320905271594981834e-01
2.030000000000000071e+01,-1.005201549952391971e-01,9.224657307287337238e-02,-4.715391281730248463e-01,2.341382776975196311e-01
2.031200000000000117e+01,-1.002746810800855676e-01,9.569497680915360627e-02,-4.721690456567033123e-01,2.361961559898827223e-01
2.032400000000000162e+01,-9.998937230287538447e-02,9.916233847592131889e-02,-4.727888001917942562e-01,2.382641388396416759e-01
2.033599999999999852e+01,-9.966352440460116147e-02,1.026483163843539409e-01,-4.733982995166443053e-01,2.403422023915728623e-01
2.034799999999999898e+01,-9.929642880995795395e-02,1.061525516644587774e-01,-4.739974516663909010e-01,2.424303221457917712e-01
2.035999999999999943e+01,-9.888737291554497433e-02,1.096746678701891742e-01,-4.745861650022591416e-01,2.445284729726506234e-01
2.037199999999999989e+01,-9.843564039405761079e-02,1.132142705837191204e-01,-4.751643482417173825e-01,2.466366291290533475e-01
2.038400000000000034e+01,-9.794051151480993866e-02,1.167709470194018412e-01,-4.757319104894391359e-01,2.487547642762333588e-01
2.039600000000000080e+01,-9.740126348114105936e-02,1.203442656278996686e-01,-4.762887612691272254e-01,2.508828514990831815e-01
2.040800000000000125e+01,-9.681717078485005401e-02,1.239337757009568025e-01,-4.768348105562045802e-01,2.530208633271353036e-01
2.042000000000000171e+01,-9.618750557835850645e-02,1.275390069773703894e-01,-4.773699688113933193e-01,2.551687717572674319e-01
2.043199999999999861e+01,-9.551153806462660267e-02,1.311594692508661897e-01,-4.778941470151956139e-01,2.573265482782861602e-01
2.044399999999999906e+01,-9.478853690543864730e-02,1.347946519801205834e-01,-4.784072567032976453e-01,2.594941638974369580e-01
2.045599999999999952e+01,-9.401776964832722627e-02,1.384440239020839347e-01,-4.789092100029010424e-01,2.616715891689688767e-01
2.046799999999999997e+01,-9.319850317235481296e-02,1.421070326487221258e-01,-4.793999196700193255e-01,2.638587942249256413e-01
2.048000000000000043e+01,-9.233000415333970923e-02,1.457831043682665806e-01,-4.798792991277228692e-01,2.660557488082326283e-01
2.049200000000000088e+01,-9.141153954850383956e-02,1.494716433514862719e-01,-4.803472625053864520e-01,2.682624223082244463e-01
2.050400000000000134e+01,-9.044237710109484518e-02,1.531720316637445178e-01,-4.808037246788995356e-01,2.704787837988206212e-01
2.051599999999999824e+01,-8.942178586508509053e-02,1.568836287837132026e-01,-4.812486013119016137e-01,2.727048020794184957e-01
2.052799999999999869e+01,-8.834903675019217806e-02,1.606057712494463052e-01,-4.816818088980119317e-01,2.749404457187415995e-01
2.053999999999999915e+01,-8.722340308762112360e-02,1.643377723126990819e-01,-4.821032648040813884e-01,2.771856831017674438e-01
2.055199999999999960e+01,-8.604416121639199555e-02,1.680789216022952060e-01,-4.825128873144685082e-01,2.794404824799631148e-01
2.056400000000000006e+01,-8.481059109074333413e-02,1.718284847976095653e-01,-4.829105956763203866e-01,2.817048120250303378e-01
2.057600000000000051e+01,-8.352197690849982870e-02,1.755857033128117584e-01,-4.832963101458920274e-01,2.839786398862989558e-01
2.058800000000000097e+01,-8.217760776066486417e-02,1.793497939931502083e-01,-4.836699520358603288e-01,2.862619342521407484e-01
2.060000000000000142e+01,-8.077677830212495746e-02,1.831199488238844653e-01,-4.840314437636349942e-01,2.885546634154755874e-01
2.061199999999999832e+01,-7.931878944370239493e-02,1.868953346532388482e-01,-4.843807089006876287e-01,2.908567958437888734e-01
2.062399999999999878e+01,-7.780294906537564559e-02,1.906750929301945507e-01,-4.847176722227825585e-01,2.931683002538089666e-01
2.063599999999999923e+01,-7.622857275062708271e-02,1.944583394581085312e-01,-4.850422597611987463e-01,2.954891456912204784e-01
2.064799999999999969e+01,-7.459498454192367567e-02,1.982441641655618147e-01,-4.853543988548147947e-01,2.978193016157003603e-01
2.066000000000000014e+01,-7.290151771708985873e-02,2.020316308951697892e-01,-4.856540182030508190e-01,3.001587379916165199e-01
2.067200000000000060e+01,-7.114751558638360285e-02,2.058197772116788227e-01,-4.859410479196045185e-01,3.025074253847105932e-01
2.068400000000000105e+01,-6.933233230996288521e-02,2.096076142304574286e-01,-4.862154195869240469e-01,3.048653350652530403e-01
2.069600000000000151e+01,-6.745533373571374613e-02,2.133941264676083582e-01,-4.864770663113212046e-01,3.072324391179211411e-01
2.070799999999999841e+01,-6.551589825672649026e-02,2.171782717127050399e-01,-4.867259227786420173e-01,3.096087105589816479e-01
2.071999999999999886e+01,-6.351341768818077882e-02,2.209589809254127180e-01,-4.869619253104041645e-01,3.119941234611742220e-01
2.073199999999999932e+01,-6.144729816319119409e-02,2.247351581574459911e-01,-4.871850119202147389e-01,3.143886530867738283e-01
2.074399999999999977e+01,-5.931696104704014400e-02,2.285056805004890834e-01,-4.873951223703958946e-01,3.167922760294168971e-01
2.075600000000000023e+01,-5.712184386915161727e-02,2.322693980620136045e-01,-4.875921982285958411e-01,3.192049703652293791e-01
2.076800000000000068e+01,-5.486140127217326024e-02,2.360251339695698669e-01,-4.877761829242067138e-01,3.216267158138473303e-01
2.078000000000000114e+01,-5.253510597745575383e-02,2.397716844051197282e-01,-4.879470218043427954e-01,3.240574939100160368e-01
2.079200000000000159e+01,-5.014244976609756599e-02,2.435078186706397529e-01,-4.881046621891807491e-01,3.264972881863946741e-01
2.080399999999999849e+01,-4.768294447464294095e-02,2.472322792858836493e-01,-4.882490534262621806e-01,3.289460843683824631e-01
2.081599999999999895e+01,-4.515612300451200822e-02,2.509437821198106655e-01,-4.883801469435342657e-01,3.314038705816998998e-01
2.082799999999999940e+01,-4.256154034422685029e-02,2.546410165567667971e-01,-4.884978963006509911e-01,3.338706375735286946e-01
2.083999999999999986e+01,-3.989877460312292456e-02,2.583226456984737962e-01,-4.886022572381647500e-01,3.363463789482239452e-01
2.085200000000000031e+01,-3.716742805553988060e-02,2.619873066030544706e-01,-4.886931877240949795e-01,3.388310914183998435e-01
2.086400000000000077e+01,-3.436712819423722032e-02,2.656336105621120436e-01,-4.887706479972527829e-01,3.413247750725333374e-01
2.087600000000000122e+01,-3.149752879156399177e-02,2.692601434170220354e-01,-4.888346006068253757e-01,3.438274336601027104e-01
2.088800000000000168e+01,-2.855831096711418382e-02,2.728654659153866846e-01,-4.888850104473362879e-01,3.463390748953940612e-01
2.089999999999999858e+01,-2.554918426027169565e-02,2.764481141087254956e-01,-4.889218447883237895e-01,3.488597107812858589e-01
2.091199999999999903e+01,-2.246988770626703880e-02,2.800065997921515892e-01,-4.889450732977176362e-01,3.513893579542328727e-01
2.092399999999999949e+01,-1.932019091373243791e-02,2.835394109871631207e-01,-4.889546680579336946e-01,3.539280380518701197e-01
2.093599999999999994e+01,-1.609989514252473108e-02,2.870450124681863668e-01,-4.889506035735362577e-01,3.564757781046964391e-01
2.094800000000000040e+01,-1.280883437958955928e-02,2.905218463337203016e-01,-4.889328567691210159e-01,3.590326109534424659e-01
2.096000000000000085e+01,-9.446876411245544447e-03,2.939683326226388282e-01,-4.889014069759999859e-01,3.615985756936864193e-01
2.097200000000000131e+01,-6.013923889908970311e-03,2.973828699765185268e-01,-4.888562359060280027e-01,3.641737181495446896e-01
2.098400000000000176e+01,-2.509915393208730916e-03,3.007638363482976751e-01,-4.887973276106651888e-01,3.667580913782565455e-01
2.099599999999999866e+01,1.065173526610785348e-03,3.041095897576921447e-01,-4.887246684232953720e-01,3.693517562075707139e-01
2.100799999999999912e+01,4.711329304975531151e-03,3.074184690939273934e-01,-4.886382468823770586e-01,3.719547818080489732e-01
2.101999999999999957e+01,8.428499341368161923e-03,3.106887949658669879e-01,-4.885380536328311485e-01,3.745672463023271836e-01
2.103200000000000003e+01,1.221659099185457009e-02,3.139188705997221218e-01,-4.884240813027814210e-01,3.771892374136810444e-01
2.104400000000000048e+01,1.607547058021942255e-02,3.171069827844621436e-01,-4.882963243522683849e-01,3.798208531561482748e-01
2.105600000000000094e+01,2.000496242998024699e-02,3.202514028646695765e-01,-4.881547788903050078e-01,3.824622025686645888e-01
2.106800000000000139e+01,2.400484791963052034e-02,3.233503877809235094e-01,-4.879994424561596156e-01,3.851134064957086323e-01
2.107999999999999829e+01,2.807486456363641331e-02,3.264021811571162779e-01,-4.878303137601679440e-01,3.877745984170056226e-01
2.109199999999999875e+01,3.221470512152189297e-02,3.294050144344390363e-01,-4.876473923790158871e-01,3.904459253289462306e-01
2.110399999999999920e+01,3.642401673764791847e-02,3.323571080513859632e-01,-4.874506783996031545e-01,3.931275486803219033e-01
2.111599999999999966e+01,4.070240011402811303e-02,3.352566726691037502e-01,-4.872401720051017238e-01,3.958196453650767443e-01
2.112800000000000011e+01,4.504940871884159648e-02,3.381019104411776555e-01,-4.870158729960054611e-01,3.985224087746506161e-01
2.114000000000000057e+01,4.946454803298067082e-02,3.408910163268670246e-01,-4.867777802380409691e-01,4.012360499125134372e-01
2.115200000000000102e+01,5.394727483728371797e-02,3.436221794467878565e-01,-4.865258910281033966e-01,4.039607985732791562e-01
2.116400000000000148e+01,5.849699654278214811e-02,3.462935844794221008e-01,-4.862602003680863705e-01,4.066969045886232315e-01
2.117599999999999838e+01,6.311307056656778602e-02,3.489034130973562853e-01,-4.859807001355972433e-01,4.094446391420180076e-01
2.118799999999999883e+01,6.779480375557600524e-02,3.514498454414302087e-01,-4.856873781390955158e-01,4.122042961538068262e-01
2.119999999999999929e+01,7.254145186072016860e-02,3.539310616311649449e-01,-4.853802170438080710e-01,4.149761937378003140e-01
2.121199999999999974e+01,7.735221906376245349e-02,3.563452433094176919e-01,-4.850591931531053058e-01,4.177606757298142348e-01
2.122400000000000020e+01,8.222625755904837408e-02,3.586905752193267904e-01,-4.847242750285105650e-01,4.205581132879118722e-01
2.123600000000000065e+01,8.716266719246452965e-02,3.609652468112721224e-01,-4.843754219296568797e-01,4.233689065629823722e-01
2.124800000000000111e+01,9.216049515966322214e-02,3.631674538775061523e-01,-4.840125820535965406e-01,4.261934864371811904e-01
2.126000000000000156e+01,9.721873576556128160e-02,3.652954002118419252e-01,-4.836356905507379622e-01,4.290323163261699491e-01
2.127199999999999847e+01,1.023363302470814140e-01,3.673472992918307423e-01,-4.832446672925426179e-01,4.318858940392484858e-01
2.128399999999999892e+01,1.075121666610112242e-01,3.693213759805590302e-01,-4.828394143635409419e-01,4.347547536892918396e-01
2.129599999999999937e+01,1.127450798385619957e-01,3.712158682450961700e-01,-4.824198132478829670e-01,4.376394676416314744e-01
2.130799999999999983e+01,1.180338514083428547e-01,3.730290288884409167e-01,-4.819857216778642428e-01,4.405406484878551798e-01
2.132000000000000028e+01,1.233772098891156715e-01,3.747591272918693317e-01,-4.815369701091659627e-01,4.434589510266052081e-01
2.133200000000000074e+01,1.287738308535910370e-01,3.764044511641195800e-01,-4.810733577848037568e-01,4.463950742289091722e-01
2.134400000000000119e+01,1.342223371645880625e-01,3.779633082941291633e-01,-4.805946483469361041e-01,4.493497631601549580e-01
2.135600000000000165e+01,1.397212992843019919e-01,3.794340283035223527e-01,-4.801005649530584729e-01,4.523238108245301592e-01
2.136799999999999855e+01,1.452692356577059696e-01,3.808149643952797869e-01,-4.795907848506147375e-01,4.553180598902390464e-01
2.137999999999999901e+01,1.508646131706213311e-01,3.821044950947005137e-01,-4.790649333619503847e-01,4.583334042452540391e-01
2.139199999999999946e+01,1.565058476829337408e-01,3.833010259787411611e-01,-4.785225772298281055e-01,4.613707903233135732e-01
2.140399999999999991e+01,1.621913046372673861e-01,3.844029913897517581e-01,-4.779632172729344486e-01,4.644312181283543617e-01
2.141600000000000037e+01,1.679192997431890599e-01,3.854088561295196946e-01,-4.773862803008598887e-01,4.675157418723752678e-01
2.142800000000000082e+01,1.736880997367807877e-01,3.863171171294514927e-01,-4.767911102395846479e-01,4.706254701267570395e-01
2.144000000000000128e+01,1.794959232154229034e-01,3.871263050927516436e-01,-4.761769584217076523e-01,4.737615653700761875e-01
2.145199999999999818e+01,1.853409415471135024e-01,3.878349861042101887e-01,-4.755429730012997180e-01,4.769252427965636754e-01
2.146399999999999864e+01,1.912212798537763492e-01,3.884417632033596024e-01,-4.748881874616515120e-01,4.801177682283283010e-01
2.147599999999999909e+01,1.971350180675475461e-01,3.889452779166751584e-01,-4.742115081963451662e-01,4.833404549514815907e-01
2.148799999999999955e+01,2.030801920590722953e-01,3.893442117443149941e-01,-4.735117011605732840e-01,4.865946592714723296e-01
2.150000000000000000e+01,2.090547948364284148e-01,3.896372875971172989e-01,-4.727873776116238713e-01,4.898817745566417803e-01
2.151200000000000045e+01,2.150567778133055385e-01,3.898232711793109262e-01,-4.720369789858930298e-01,4.932032235115844654e-01
2.152400000000000091e+01,2.210840521447204610e-01,3.899009723125063109e-01,-4.712587609959441037e-01,4.965604483944797143e-01
2.153600000000000136e+01,2.271344901285492768e-01,3.898692461965068690e-01,-4.704507770761910956e-01,4.999548988658162330e-01
2.154800000000000182e+01,2.332059266708442768e-01,3.897269946024134457e-01,-4.696108613611182925e-01,5.033880171318371177e-01
2.155999999999999872e+01,2.392961608128578443e-01,3.894731669934928253e-01,-4.687366114467574341e-01,5.068612200262923029e-01
2.157199999999999918e+01,2.454029573175441348e-01,3.891067615692554438e-01,-4.678253712655369712e-01,5.103758776615197057e-01
2.158399999999999963e+01,2.515240483131588323e-01,3.886268262281505348e-01,-4.668742144974321051e-01,5.139332882776590505e-01
2.159600000000000009e+01,2.576571349915493525e-01,3.880324594441945663e-01,-4.658799290468523813e-01,5.175346489310733711e-01
2.160800000000000054e+01,2.637998893585988269e-01,3.873228110528185164e-01,-4.648390032344839051e-01,5.211810216944857688e-01
2.162000000000000099e+01,2.699499560342812909e-01,3.864970829410780961e-01,-4.637476144848298176e-01,5.248732950975792955e-01
2.163200000000000145e+01,2.761049540997691509e-01,3.855545296372512865e-01,-4.626016214305027630e-01,5.286121406239663312e-01
2.164399999999999835e+01,2.822624789890046393e-01,3.844944587946547143e-01,-4.613965604986154934e-01,5.323979642051374084e-01
2.165599999999999881e+01,2.884201044223324573e-01,3.833162315642802409e-01,-4.601276481856719780e-01,5.362308528207981873e-01
2.166799999999999926e+01,2.945753843796892202e-01,3.820192628505517107e-01,-4.587897903554437051e-01,5.401105165339681324e-01
2.167999999999999972e+01,3.007258551112190204e-01,3.806030214440833115e-01,-4.573775999962378380e-01,5.440362265629916649e-01
2.169200000000000017e+01,3.068690371832266117e-01,3.790670300248967783e-01,-4.558854249337559450e-01,5.480067503232752824e-01
2.170400000000000063e+01,3.130024375577027951e-01,3.774108650288486855e-01,-4.543073869938815679e-01,5.520202847575764737e-01
2.171600000000000108e+01,3.191235517040224012e-01,3.756341563693797458e-01,-4.526374340244104788e-01,5.560743897079361009e-01
2.172800000000000153e+01,3.252298657417619920e-01,3.737365870055417982e-01,-4.508694059927711995e-01,5.601659235509238721e-01
2.173999999999999844e+01,3.313188586142189473e-01,3.717178923463974050e-01,-4.489971160552931884e-01,5.642909837982870158e-01
2.175199999999999889e+01,3.373880042926088452e-01,3.695778594800014361e-01,-4.470144470231803835e-01,5.684448558252221950e-01
2.176399999999999935e+01,3.434347740119079173e-01,3.673163262138096075e-01,-4.449154630183945192e-01,5.726219732862670719e-01
2.177599999999999980e+01,3.494566385400765252e-01,3.649331799108256336e-01,-4.426945353172515585e-01,5.768158940630178089e-01
2.178800000000000026e+01,3.554510704832593015e-01,3.624283561032161094e-01,-4.403464804347373418e-01,5.810192957004149950e-01
2.180000000000000071e+01,3.614155466311005926e-01,3.598018368616127671e-01,-4.378667074417774696e-01,5.852239941694177272e-01
2.181200000000000117e+01,3.673475503473994097e-01,3.570536488943355513e-01,-4.352513703870263817e-01,5.894209893873183503e-01
2.182400000000000162e+01,3.732445740133267797e-01,3.541838613454817430e-01,-4.324975205942737655e-01,5.936005401903963197e-01
2.183599999999999852e+01,3.791041215318806668e-01,3.511925832542801551e-01,-4.296032526267676288e-01,5.977522703666571235e-01
2.184799999999999898e+01,3.849237109051913963e-01,3.480799606305512439e-01,-4.265678369663591374e-01,6.018653059312070175e-01
2.185999999999999943e+01,3.907008768979469693e-01,3.448461730907266820e-01,-4.233918320674180391e-01,6.059284421158551703e-01
2.187199999999999989e+01,3.964331738043000986e-01,3.414914299867449765e-01,-4.200771685209072626e-01,6.099303366437203167e-01
