Frequency, Re(SMin1Min1), Im(SMin1Min1), Re(SMax1Min1), Im(SMax1Min1)
2.000000000000000000e+01,-1.295802222572440265e-01,4.927841909529091097e-02,-4.762224209899114102e-01,1.754378633531002707e-01
2.001200000000000045e+01,-1.370605766498974309e-01,6.791742630919518631e-02,-4.855827935552526897e-01,1.760055028693605639e-01
2.002400000000000091e+01,-1.428966019487565298e-01,8.670725208529003747e-02,-4.947340490198500196e-01,1.773703725994294766e-01
2.003600000000000136e+01,-1.471436192201628634e-01,1.054844862293164015e-01,-5.036093070753820955e-01,1.794785196788054038e-01
2.004799999999999827e+01,-1.498730050499103295e-01,1.241025030125663814e-01,-5.121522924409861455e-01,1.822714080129433645e-01
2.005999999999999872e+01,-1.511684434111703057e-01,1.424324145883906212e-01,-5.203171299325408672e-01,1.856878279300496204e-01
2.007199999999999918e+01,-1.511223956316721517e-01,1.603632964193377752e-01,-5.280678391640681868e-01,1.896655786096014540e-01
2.008399999999999963e+01,-1.498329001942639294e-01,1.778018142753791664e-01,-5.353776082455138363e-01,1.941428939153663213e-01
2.009600000000000009e+01,-1.474007711339515581e-01,1.946713873951927687e-01,-5.422279207394576916e-01,1.990596030036609343e-01
2.010800000000000054e+01,-1.439272266637692810e-01,2.109110168466277468e-01,-5.486076011603724378e-01,2.043580332951363265e-01
2.012000000000000099e+01,-1.395119498790024781e-01,2.264738953431898461e-01,-5.545118332535892147e-01,2.099836749778349887e-01
2.013200000000000145e+01,-1.342515612853261153e-01,2.413258978372076757e-01,-5.599411936470333195e-01,2.158856335265871562e-01
2.014399999999999835e+01,-1.282384679712373632e-01,2.554440336332391426e-01,-5.649007323008251591e-01,2.220169004422982151e-01
2.015599999999999881e+01,-1.215600454999145458e-01,2.688149224205592658e-01,-5.693991211802964525e-01,2.283344733167379514e-01
2.016799999999999926e+01,-1.142981048081380679e-01,2.814333397626609390e-01,-5.734478841145382866e-01,2.347993551924901223e-01
2.017999999999999972e+01,-1.065285963261019264e-01,2.933008629227589203e-01,-5.770607139937689034e-01,2.413764607110192306e-01
2.019200000000000017e+01,-9.832150603584006998e-02,3.044246357480824283e-01,-5.802528782490619097e-01,2.480344533003305818e-01
2.020400000000000063e+01,-8.974090230770856436e-02,3.148162616871024722e-01,-5.830407097856181720e-01,2.547455340917502697e-01
2.021600000000000108e+01,-8.084509733475084281e-02,3.244908266856950663e-01,-5.854411779897149559e-01,2.614851996918726718e-01
2.022800000000000153e+01,-7.168689225883188854e-02,3.334660484083799559e-01,-5.874715328682215132e-01,2.682319825821669612e-01
2.023999999999999844e+01,-6.231388025668305186e-02,3.417615446239027355e-01,-5.891490145860780459e-01,2.749671849000066559e-01
2.025199999999999889e+01,-5.276878667581504090e-02,3.493982113453182325e-01,-5.904906204430618866e-01,2.816746137308616671e-01
2.026399999999999935e+01,-4.308982963640405062e-02,3.563977001141118151e-01,-5.915129215090295656e-01,2.883403238257655210e-01
2.027599999999999980e+01,-3.331108828236942210e-02,3.627819833966356988e-01,-5.922319215811071569e-01,2.949523718345626322e-01
2.028800000000000026e+01,-2.346286906571756758e-02,3.685729971944185501e-01,-5.926629517315054052e-01,3.015005846789503008e-01
2.030000000000000071e+01,-1.357206311084194032e-02,3.737923504777118655e-01,-5.928205944020947804e-01,3.079763435363916391e-01
2.031200000000000117e+01,-3.662489879469182485e-03,3.784610917937590857e-01,-5.927186317148531725e-01,3.143723840197666930e-01
2.032400000000000162e+01,6.244775898062960955e-03,3.825995242726716317e-01,-5.923700133671216950e-01,3.206826124725401517e-01
2.033599999999999852e+01,1.613109568082823908e-02,3.862270611782580021e-01,-5.917868401425324665e-01,3.269019378132786979e-01
2.034799999999999898e+01,2.597997754700840864e-02,3.893621150757777261e-01,-5.909803596780677237e-01,3.330261180191013692e-01
2.035999999999999943e+01,3.577680535334741563e-02,3.920220145786925681e-01,-5.899609716784876001e-01,3.390516201030009946e-01
2.037199999999999989e+01,4.550858575692189045e-02,3.942229434712904990e-01,-5.887382402599534714e-01,3.449754922878565111e-01
2.038400000000000034e+01,5.516371176065401616e-02,3.959798977731055492e-01,-5.873209115377594491e-01,3.507952469878631296e-01
2.039600000000000080e+01,6.473174108985729758e-02,3.973066570116689511e-01,-5.857169349535417124e-01,3.565087531579582136e-01
2.040800000000000125e+01,7.420318743778171744e-02,3.982157666050707423e-01,-5.839334871718506736e-01,3.621141365488518837e-01
2.042000000000000171e+01,8.356932240689840530e-02,3.987185288320171939e-01,-5.819769976721630433e-01,3.676096863978789431e-01
2.043199999999999861e+01,9.282198579715089659e-02,3.988250003945503774e-01,-5.798531754285627393e-01,3.729937670849365894e-01
2.044399999999999906e+01,1.019534017340031490e-01,3.985439950699051215e-01,-5.775670363144096431e-01,3.782647332811519547e-01
2.045599999999999952e+01,1.109559979723438172e-01,3.978830904180215011e-01,-5.751229311026957447e-01,3.834208471102550364e-01
2.046799999999999997e+01,1.198222255447031342e-01,3.968486379774581740e-01,-5.725245741647533304e-01,3.884601958252040244e-01
2.048000000000000043e+01,1.285443757333366854e-01,3.954457768651478689e-01,-5.697750732117418115e-01,3.933806084727847208e-01
2.049200000000000088e+01,1.371143911282512173e-01,3.936784512187196938e-01,-5.668769606875426748e-01,3.981795699760162233e-01
2.050400000000000134e+01,1.455236672822942667e-01,3.915494325127599762e-01,-5.638322277229564916e-01,4.028541310089744365e-01
2.051599999999999824e+01,1.537628411891758806e-01,3.890603484773611509e-01,-5.606423619165953331e-01,4.074008119743641743e-01
2.052799999999999869e+01,1.618215624951325482e-01,3.862117211915366832e-01,-5.573083906379667773e-01,4.118154993273214215e-01
2.053999999999999915e+01,1.696882430219499582e-01,3.830030179684127400e-01,-5.538309320776508837e-01,4.160933324305409187e-01
2.055199999999999960e+01,1.773497798521692925e-01,3.794327199588135580e-01,-5.502102569273344956e-01,4.202285790938447563e-01
2.056400000000000006e+01,1.847912469472306474e-01,3.754984150552267419e-01,-5.464463643941717130e-01,4.242144979730985699e-01
2.057600000000000051e+01,1.919955501030189138e-01,3.711969237766643004e-01,-5.425390772802530792e-01,4.280431861206578925e-01
2.058800000000000097e+01,1.989430400989533887e-01,3.665244694731524255e-01,-5.384881621357628934e-01,4.317054102536845295e-01
2.060000000000000142e+01,2.056110793256976377e-01,3.614769075415245614e-01,-5.342934820743076019e-01,4.351904208275985675e-01
2.061199999999999832e+01,2.119735582205976854e-01,3.560500325410111411e-01,-5.299551917709974802e-01,4.384857488987770058e-01
2.062399999999999878e+01,2.180003598480164395e-01,3.502399872892079102e-01,-5.254739864892011836e-01,4.415769872166261378e-01
2.063599999999999923e+01,2.236567744364698074e-01,3.440438043349826613e-01,-5.208514197161169257e-01,4.444475592559204991e-01
2.064799999999999969e+01,2.289028713364047729e-01,3.374601177031368304e-01,-5.160903070927714831e-01,4.470784833356997168e-01
2.066000000000000014e+01,2.336928446727318254e-01,3.304900913919056604e-01,-5.111952376641473172e-01,4.494481440378823578e-01
2.067200000000000060e+01,2.379743622525216651e-01,3.231386203924479505e-01,-5.061732167403832916e-01,4.515320904401639024e-01
2.068400000000000105e+01,2.416879667522856545e-01,3.154158690903275386e-01,-5.010344672568091129e-01,4.533028909553749597e-01
2.069600000000000151e+01,2.447666059285307782e-01,3.073392190528889678e-01,-4.957934174080700918e-01,4.547300886685082255e-01
2.070799999999999841e+01,2.471354068824244687e-01,2.989357003153494396e-01,-4.904698997979164421e-01,4.557803198184072202e-01
2.071999999999999886e+01,2.487118604089003648e-01,2.902449722728633330e-01,-4.850905787292918436e-01,4.564176820529937673e-01
2.073199999999999932e+01,2.494066462746176716e-01,2.813228943169657770e-01,-4.796906036499810067e-01,4.566044681023693208e-01
2.074399999999999977e+01,2.491254073169788807e-01,2.722456710779150857e-01,-4.743154528103011303e-01,4.563024127451829615e-01
2.075600000000000023e+01,2.477718625145894915e-01,2.631144574755832632e-01,-4.690228752183456806e-01,4.554746315860735417e-01
2.076800000000000068e+01,2.452527200454825973e-01,2.540601470850132881e-01,-4.638847539659650132e-01,4.540884495233307727e-01
2.078000000000000114e+01,2.414848793254169290e-01,2.452478274048299212e-01,-4.589885950095060063e-01,4.521193080794225772e-01
2.079200000000000159e+01,2.364053446047593432e-01,2.368800618590865548e-01,-4.544381945697898995e-01,4.495558784728953539e-01
2.080399999999999849e+01,2.299840391762164316e-01,2.291977719546293424e-01,-4.503528724962109209e-01,4.464063580855975877e-01
2.081599999999999895e+01,2.222392243768276099e-01,2.224771154141604868e-01,-4.468645207330075309e-01,4.427056575502166247e-01
2.082799999999999940e+01,2.132544263295622078e-01,2.170205337651013033e-01,-4.441116825992537653e-01,4.385227760586168366e-01
2.083999999999999986e+01,2.031946701007779355e-01,2.131403059210441042e-01,-4.422300604140063096e-01,4.339671420081928632e-01
2.085200000000000031e+01,1.923185937438470494e-01,2.111337681812772982e-01,-4.413393633434206653e-01,4.291921768931547532e-01
2.086400000000000077e+01,1.809820767246935747e-01,2.112510468284248544e-01,-4.415273134824467260e-01,4.243940419026653865e-01
2.087600000000000122e+01,1.696289949680778453e-01,2.136586194517127724e-01,-4.428328300165215170e-01,4.198037462910415574e-01
2.088800000000000168e+01,1.587662387013310528e-01,2.184047098025480305e-01,-4.452315751568489133e-01,4.156717880234900853e-01
2.089999999999999858e+01,1.489234208687579553e-01,2.253943463814498394e-01,-4.486276246285891278e-01,4.122462671365286768e-01
2.091199999999999903e+01,1.406021396743725727e-01,2.343816303787863153e-01,-4.528544718711977057e-01,4.097475409383034006e-01
2.092399999999999949e+01,1.342236885641218957e-01,2.449836777257599629e-01,-4.576867001871706697e-01,4.083441594276232545e-01
2.093599999999999994e+01,1.300858359931536534e-01,2.567153969200128838e-01,-4.628609177803758024e-01,4.081351615008300682e-01
2.094800000000000040e+01,1.283375698341650273e-01,2.690386258265959341e-01,-4.681019732528306498e-01,4.091424428154410986e-01
2.096000000000000085e+01,1.289759589923952510e-01,2.814154967292929466e-01,-4.731491403711191035e-01,4.113142577984176818e-01
2.097200000000000131e+01,1.318634558184948735e-01,2.933556645089693271e-01,-4.777773968080088474e-01,4.145380641997916671e-01
2.098400000000000176e+01,1.367593668313517308e-01,3.044499799569462262e-01,-4.818107872950511128e-01,4.186589642302936953e-01
2.099599999999999866e+01,1.433573000156770638e-01,3.143877154801231200e-01,-4.851272410374111166e-01,4.234994920230267801e-01
2.100799999999999912e+01,1.513211733805770731e-01,3.229586462139870107e-01,-4.876561772758153390e-01,4.288772713623758559e-01
2.101999999999999957e+01,1.603148057061310194e-01,3.300439160989658838e-01,-4.893712772862001126e-01,4.346184993114305950e-01
2.103200000000000003e+01,1.700229155311175910e-01,3.356004266381615309e-01,-4.902809274163011377e-01,4.405666496365669427e-01
2.104400000000000048e+01,1.801636070965420833e-01,3.396429413865136304e-01,-4.904183596935943190e-01,4.465868314662507776e-01
2.105600000000000094e+01,1.904937644847211897e-01,3.422269008581663718e-01,-4.898328076536993536e-01,4.525667762354759760e-01
2.106800000000000139e+01,2.008092810107092174e-01,3.434336672953212655e-01,-4.885823283972381414e-01,4.584155502090007106e-01
2.107999999999999829e+01,2.109419893634659204e-01,3.433588901067736732e-01,-4.867284488603464410e-01,4.640609622784773736e-01
2.109199999999999875e+01,2.207548110336170211e-01,3.421040008826716217e-01,-4.843324966129622933e-01,4.694464036597973955e-01
2.110399999999999920e+01,2.301362181937261497e-01,3.397704779471013570e-01,-4.814533370794056855e-01,4.745276147807890865e-01
2.111599999999999966e+01,2.389947147313686571e-01,3.364563783852494439e-01,-4.781462070071083592e-01,4.792696737525007911e-01
2.112800000000000011e+01,2.472537434666672307e-01,3.322546323621703435e-01,-4.744623610567931249e-01,4.836443552014397795e-01
2.114000000000000057e+01,2.548472198586057003e-01,3.272526619012862681e-01,-4.704493007974295260e-01,4.876279143706423458e-01
2.115200000000000102e+01,2.617157653622529945e-01,3.215329790483661410e-01,-4.661514126028170613e-01,4.911992985171321768e-01
2.116400000000000148e+01,2.678036470508279865e-01,3.151745106191731205e-01,-4.616108922391468083e-01,4.943387640879169931e-01
2.117599999999999838e+01,2.730564064794828161e-01,3.082544755854861318e-01,-4.568688747387533722e-01,4.970268741710885951e-01
2.118799999999999883e+01,2.774191661681426058e-01,3.008507011228057082e-01,-4.519667171594740074e-01,4.992438590882237737e-01
2.119999999999999929e+01,2.808356265531333773e-01,2.930443024121730522e-01,-4.469473990147374010e-01,5.009693387559008837e-01
2.121199999999999974e+01,2.832478027232454565e-01,2.849226683400645221e-01,-4.418570106526484853e-01,5.021824251412229101e-01
2.122400000000000020e+01,2.845965930325868865e-01,2.765826886110095972e-01,-4.367462933622878185e-01,5.028622439614180983e-01
2.123600000000000065e+01,2.848233147795073972e-01,2.681341247198352762e-01,-4.316721756399055643e-01,5.029889336929331822e-01
2.124800000000000111e+01,2.838723774280148548e-01,2.597029641731739003e-01,-4.266992167441451267e-01,5.025451928193710449e-01
2.126000000000000156e+01,2.816952792146787954e-01,2.514345012800173196e-01,-4.219008208176858732e-01,5.015184470157034724e-01
2.127199999999999847e+01,2.782560908364158370e-01,2.434957589406619993e-01,-4.173600238014855135e-01,4.999036881548793443e-01
2.128399999999999892e+01,2.735385068202851877e-01,2.360767119525440938e-01,-4.131695865647070365e-01,4.977069858514225897e-01
2.129599999999999937e+01,2.675543740935001358e-01,2.293896148859319861e-01,-4.094310634457408726e-01,4.949495781612376910e-01
2.130799999999999983e+01,2.603533243870994607e-01,2.236656183168354017e-01,-4.062524776807210913e-01,4.916723024800733755e-01
2.132000000000000028e+01,2.520327352403528565e-01,2.191478423208190474e-01,-4.037442565769537861e-01,4.879399318707952626e-01
2.133200000000000074e+01,2.427467531388380062e-01,2.160802522393512615e-01,-4.020131996418135900e-01,4.838447565435468056e-01
2.134400000000000119e+01,2.327126205842477424e-01,2.146921362329150262e-01,-4.011545082298053067e-01,4.795085443431757466e-01
2.135600000000000165e+01,2.222122174558329166e-01,2.151787643944807205e-01,-4.012423070913633816e-01,4.750819092154463519e-01
2.136799999999999855e+01,2.115867719665708024e-01,2.176798645661968123e-01,-4.023195964813455761e-01,4.707402138801849434e-01
2.137999999999999901e+01,2.012233244022541556e-01,2.222586792724499105e-01,-4.043890758597115664e-01,4.666755180903278677e-01
2.139199999999999946e+01,1.915328219728080206e-01,2.288852147466957920e-01,-4.074065977316973508e-01,4.630847722303803593e-01
2.140399999999999991e+01,1.829215268993312493e-01,2.374274315587342754e-01,-4.112789479663568337e-01,4.601553401916553265e-01
2.141600000000000037e+01,1.757592825883781962e-01,2.476532464294093905e-01,-4.158670887763935009e-01,4.580497751041777699e-01
2.142800000000000082e+01,1.703494672099220841e-01,2.592443314700049739e-01,-4.209949955199365212e-01,4.568922587296433968e-01
2.144000000000000128e+01,1.669056052721100969e-01,2.718202542816653966e-01,-4.264630245013650844e-01,4.567590081705434901e-01
2.145199999999999818e+01,1.655384118416685646e-01,2.849692568395925107e-01,-4.320637468531586811e-01,4.576742124593752847e-01
2.146399999999999864e+01,1.662548369229311651e-01,2.982806731434443082e-01,-4.375977135805377838e-01,4.596118986920755822e-01
2.147599999999999909e+01,1.689681837906299167e-01,3.113740282207060894e-01,-4.428868171504957152e-01,4.625029222460501077e-01
2.148799999999999955e+01,1.735163830202216817e-01,3.239211124189174673e-01,-4.477836648100341765e-01,4.662454007929171529e-01
2.150000000000000000e+01,1.796845209778037133e-01,3.356592382480191872e-01,-4.521763764984353950e-01,4.707165736614185580e-01
2.151200000000000045e+01,1.872278150806895858e-01,3.463957946705611413e-01,-4.559891373898642963e-01,4.757842510446328443e-01
2.152400000000000091e+01,1.958921018856743246e-01,3.560056136514839764e-01,-4.591794499797317020e-01,4.813165417015440317e-01
2.153600000000000136e+01,2.054301105145475426e-01,3.644233558969856568e-01,-4.617332786737830541e-01,4.871891819360322229e-01
2.154800000000000182e+01,2.156129393011544937e-01,3.716331774734209503e-01,-4.636592236678568901e-01,4.932903471233591741e-01
2.155999999999999872e+01,2.262370058241070792e-01,3.776575736187128829e-01,-4.649826225016966408e-01,4.995232132612629772e-01
2.157199999999999918e+01,2.371272346951004140e-01,3.825467484516972272e-01,-4.657401769304230776e-01,5.058067357086806215e-01
2.158399999999999963e+01,2.481374318405401014e-01,3.863693106608370731e-01,-4.659754239205062265e-01,5.120751619085318618e-01
2.159600000000000009e+01,2.591487652380879969e-01,3.892046470804719771e-01,-4.657351547624805632e-01,5.182767486218727848e-01
2.160800000000000054e+01,2.700671277379025903e-01,3.911370122189521958e-01,-4.650667448365353174e-01,5.243720617140231743e-01
2.162000000000000099e+01,2.808199724986764623e-01,3.922511836075964209e-01,-4.640162788580060038e-01,5.303321333952417671e-01
2.163200000000000145e+01,2.913530323611873696e-01,3.926294423127480449e-01,-4.626273255536088036e-01,5.361366585847285871e-01
2.164399999999999835e+01,3.016271841988684699e-01,3.923496135325188483e-01,-4.609402147387713922e-01,5.417723375997987034e-01
2.165599999999999881e+01,3.116156049348300927e-01,3.914839168331425423e-01,-4.589916850866692100e-01,5.472314181077703177e-01
2.166799999999999926e+01,3.213012854858608991e-01,3.900984094285646075e-01,-4.568147930481902819e-01,5.525104528099611390e-01
2.167999999999999972e+01,3.306749164012215969e-01,3.882528460747133314e-01,-4.544389965926778907e-01,5.576092668284636789e-01
2.169200000000000017e+01,3.397331275080346935e-01,3.860008182027127588e-01,-4.518903485938972620e-01,5.625301163629294887e-01
2.170400000000000063e+01,3.484770471958821836e-01,3.833900692029173496e-01,-4.491917524704227005e-01,5.672770145851097068e-01
2.171600000000000108e+01,3.569111400419330837e-01,3.804629110072971221e-01,-4.463632468449071911e-01,5.718551994181434450e-01
2.172800000000000153e+01,3.650422805648493862e-01,3.772566893404124544e-01,-4.434222968003802556e-01,5.762707190044966676e-01
2.173999999999999844e+01,3.728790233981947866e-01,3.738042619008666301e-01,-4.403840773011348242e-01,5.805301130914091168e-01
2.175199999999999889e+01,3.804310343705138986e-01,3.701344662090538251e-01,-4.372617400767807028e-01,5.846401714889494228e-01
2.176399999999999935e+01,3.877086517904362872e-01,3.662725628336138683e-01,-4.340666592634500054e-01,5.886077537276513949e-01
2.177599999999999980e+01,3.947225520267139687e-01,3.622406460082769342e-01,-4.308086537981946629e-01,5.924396568125110951e-01
2.178800000000000026e+01,4.014834979036130957e-01,3.580580179545073682e-01,-4.274961863256273586e-01,5.961425204218298024e-01
2.180000000000000071e+01,4.080021523464339439e-01,3.537415260744390944e-01,-4.241365394725136739e-01,5.997227609968993622e-01
2.181200000000000117e+01,4.142889430657752392e-01,3.493058639888848571e-01,-4.207359709806298698e-01,6.031865279203336705e-01
2.182400000000000162e+01,4.203539668811387409e-01,3.447638384781342435e-01,-4.172998495100313510e-01,6.065396764183721423e-01
2.183599999999999852e+01,4.262069246046650828e-01,3.401266049676254233e-01,-4.138327730409253058e-01,6.097877529863645618e-01
2.184799999999999898e+01,4.318570792972163397e-01,3.354038744513660464e-01,-4.103386717878873546e-01,6.129359900692532559e-01
2.185999999999999943e+01,4.373132322363947888e-01,3.306040947804503305e-01,-4.068208974472616868e-01,6.159893074698762350e-01
2.187199999999999989e+01,4.425837121605480373e-01,3.257346091439525804e-01,-4.032823004623303231e-01,6.189523185428500440e-01
