Frequency, Re(SMin1Min1), Im(SMin1Min1), Re(SMax1Min1), Im(SMax1Min1)
2.000000000000000000e+01,-1.104512681413769293e-01,2.810642209434096456e-02,-4.627137411722261895e-01,1.812743080650630334e-01
2.001200000000000045e+01,-1.201210103548585872e-01,4.639199403984119174e-02,-4.722690757335494260e-01,1.807464306272937860e-01
2.002400000000000091e+01,-1.280737921975103888e-01,6.507749067403624521e-02,-4.817212555571955268e-01,1.810881778649551244e-01
2.003600000000000136e+01,-1.343369475367028332e-01,8.397293401148515912e-02,-4.909866858756294361e-01,1.822549230470989490e-01
2.004799999999999827e+01,-1.389604226821552491e-01,1.029029649573596356e-01,-4.999923019078681419e-01,1.841940203611344973e-01
2.005999999999999872e+01,-1.420127497051390797e-01,1.217092066822518248e-01,-5.086759958595217235e-01,1.868470511617508489e-01
2.007199999999999918e+01,-1.435769852678880076e-01,1.402516720036500186e-01,-5.169865985910112594e-01,1.901519307533302838e-01
2.008399999999999963e+01,-1.437468134432551281e-01,1.584093201711771759e-01,-5.248834961426963597e-01,1.940448015464289466e-01
2.009600000000000009e+01,-1.426229598100035023e-01,1.760798984157393443e-01,-5.323359669168078456e-01,1.984616666056169820e-01
2.010800000000000054e+01,-1.403100137985767992e-01,1.931792162987847894e-01,-5.393223231697847897e-01,2.033397426781545225e-01
2.012000000000000099e+01,-1.369137111962574205e-01,2.096399996580352865e-01,-5.458289327735859064e-01,2.086185322930904917e-01
2.013200000000000145e+01,-1.325386914376986969e-01,2.254104596871196187e-01,-5.518491861314985814e-01,2.142406298892380323e-01
2.014399999999999835e+01,-1.272867157798898974e-01,2.404526951771578380e-01,-5.573824605575137259e-01,2.201522873034549299e-01
2.015599999999999881e+01,-1.212553124914248492e-01,2.547410254229174331e-01,-5.624331218002079913e-01,2.263037699171580597e-01
2.016799999999999926e+01,-1.145368028153617157e-01,2.682603302576365700e-01,-5.670095907143440916e-01,2.326495371446339333e-01
2.017999999999999972e+01,-1.072176553416974293e-01,2.810044538745486431e-01,-5.711234929503870017e-01,2.391482806428797681e-01
2.019200000000000017e+01,-9.937811508506480540e-02,2.929747115826090709e-01,-5.747889012080006355e-01,2.457628514678339982e-01
2.020400000000000063e+01,-9.109205561869719581e-02,3.041785239438858923e-01,-5.780216731073245517e-01,2.524601041158786585e-01
2.021600000000000108e+01,-8.242700686680866362e-02,3.146281909597946624e-01,-5.808388829367094885e-01,2.592106815439181866e-01
2.022800000000000153e+01,-7.344431663786704645e-02,3.243398099550653391e-01,-5.832583422144470564e-01,2.659887612791890232e-01
2.023999999999999844e+01,-6.419940996008527412e-02,3.333323342370250186e-01,-5.852982018958534649e-01,2.727717789008304861e-01
2.025199999999999889e+01,-5.474211624271506371e-02,3.416267650979134540e-01,-5.869766279065657955e-01,2.795401416785978643e-01
2.026399999999999935e+01,-4.511703989511432755e-02,3.492454668809409912e-01,-5.883115412504837938e-01,2.862769420841930756e-01
2.027599999999999980e+01,-3.536395509403154197e-02,3.562115932732695112e-01,-5.893204140222146892e-01,2.929676782808755542e-01
2.028800000000000026e+01,-2.551820980606579747e-02,3.625486123920131920e-01,-5.900201130813365058e-01,2.995999865383437988e-01
2.030000000000000071e+01,-1.561112792701980882e-02,3.682799183173616764e-01,-5.904267837879463299e-01,3.061633887787924557e-01
2.031200000000000117e+01,-5.670401520825136751e-03,3.734285172777813688e-01,-5.905557669564166501e-01,3.126490570882920483e-01
2.032400000000000162e+01,4.279532316283585214e-03,3.780167775337500702e-01,-5.904215429852994745e-01,3.190495959722521868e-01
2.033599999999999852e+01,1.421713340576727380e-02,3.820662330090233705e-01,-5.900376979163668434e-01,3.253588423414873754e-01
2.034799999999999898e+01,2.412342108903118773e-02,3.855974317887483904e-01,-5.894169069328490940e-01,3.315716826366321146e-01
2.035999999999999943e+01,3.398165807938323402e-02,3.886298216769743519e-01,-5.885709315072031877e-01,3.376838860889936900e-01
2.037199999999999989e+01,4.377705521397366045e-02,3.911816660404408563e-01,-5.875106270431227351e-01,3.436919528370285248e-01
2.038400000000000034e+01,5.349649604152174887e-02,3.932699841357692461e-01,-5.862459584228267850e-01,3.495929754369603293e-01
2.039600000000000080e+01,6.312827964769586464e-02,3.949105110115084250e-01,-5.847860213715596611e-01,3.553845121970022336e-01
2.040800000000000125e+01,7.266187972149178165e-02,3.961176728920478007e-01,-5.831390679924293163e-01,3.610644707054225244e-01
2.042000000000000171e+01,8.208771756518495888e-02,3.969045746914747763e-01,-5.813125352141844671e-01,3.666309998959051963e-01
2.043199999999999861e+01,9.139694651596137753e-02,3.972829969812599615e-01,-5.793130752415032170e-01,3.720823889856945121e-01
2.044399999999999906e+01,1.005812450532912877e-01,3.972634003593276675e-01,-5.771465874120716988e-01,3.774169716222696147e-01
2.045599999999999952e+01,1.096326156912307698e-01,3.968549357560300916e-01,-5.748182511582421439e-01,3.826330335747838429e-01
2.046799999999999997e+01,1.185431865823479841e-01,3.960654597843146774e-01,-5.723325600551970593e-01,3.877287223016730455e-01
2.048000000000000043e+01,1.273050125762651419e-01,3.949015548197871706e-01,-5.696933572253638500e-01,3.927019567118823495e-01
2.049200000000000088e+01,1.359098722716442498e-01,3.933685541083570825e-01,-5.669038726745512236e-01,3.975503354127733480e-01
2.050400000000000134e+01,1.443490573700715041e-01,3.914705728765211501e-01,-5.639667634753318115e-01,4.022710417036997055e-01
2.051599999999999824e+01,1.526131503831589797e-01,3.892105472004586675e-01,-5.608841581063283011e-01,4.068607435342679324e-01
2.052799999999999869e+01,1.606917864663384710e-01,3.865902833213406553e-01,-5.576577067243596586e-01,4.113154866081580874e-01
2.053999999999999915e+01,1.685733948695460616e-01,3.836105212323120961e-01,-5.542886397160082801e-01,4.156305787901153903e-01
2.055199999999999960e+01,1.762449152356455329e-01,3.802710177766295829e-01,-5.507778375768357382e-01,4.198004639863863185e-01
2.056400000000000006e+01,1.836914837909182363e-01,3.765706562705959382e-01,-5.471259160364656537e-01,4.238185837492521313e-01
2.057600000000000051e+01,1.908960844373408516e-01,3.725075919000273572e-01,-5.433333314274543246e-01,4.276772250524250030e-01
2.058800000000000097e+01,1.978391599952821212e-01,3.680794449534623425e-01,-5.394005126312643172e-01,4.313673530661123467e-01
2.060000000000000142e+01,2.044981795415447834e-01,3.632835574829276215e-01,-5.353280275733659499e-01,4.348784284302601999e-01
2.061199999999999832e+01,2.108471592132709349e-01,3.581173333657804991e-01,-5.311167942246587392e-01,4.381982096270787275e-01
2.062399999999999878e+01,2.168561363982270396e-01,3.525786871121279198e-01,-5.267683484257302817e-01,4.413125427934043721e-01
2.063599999999999923e+01,2.224906014697792811e-01,3.466666332132164463e-01,-5.222851835753045124e-01,4.442051439714759797e-01
2.064799999999999969e+01,2.277108979376024911e-01,3.403820553468943633e-01,-5.176711802361545489e-01,4.468573827537775656e-01
2.066000000000000014e+01,2.324716121441511296e-01,3.337287031335649523e-01,-5.129321468068731571e-01,4.492480820329761704e-01
2.067200000000000060e+01,2.367209888537274709e-01,3.267144727862392739e-01,-5.080764951712316568e-01,4.513533567509675493e-01
2.068400000000000105e+01,2.404004310292569835e-01,3.193530357085055393e-01,-5.031160769143967482e-01,4.531465258975376775e-01
2.069600000000000151e+01,2.434441728456364085e-01,3.116658836365945318e-01,-4.980672050131686457e-01,4.545981473354061553e-01
2.070799999999999841e+01,2.457792566793939870e-01,3.036848565176720749e-01,-4.929518808348228864e-01,4.556762450033249867e-01
2.071999999999999886e+01,2.473259990514138640e-01,2.954552039564318777e-01,-4.877992337531464884e-01,4.563468228889572820e-01
2.073199999999999932e+01,2.479991972127682243e-01,2.870391937752503342e-01,-4.826471563702803280e-01,4.565747889936633275e-01
2.074399999999999977e+01,2.477104034606872618e-01,2.785202095837102099e-01,-4.775440765482991679e-01,4.563254423284296979e-01
2.075600000000000023e+01,2.463716675961042102e-01,2.700071576750878166e-01,-4.725507416704441410e-01,4.555667001118481330e-01
2.076800000000000068e+01,2.439011969539568170e-01,2.616388156630329309e-01,-4.677417949076579928e-01,4.542722484759625368e-01
2.078000000000000114e+01,2.402313693283734675e-01,2.535874898316327064e-01,-4.632067959714394334e-01,4.524257682584331142e-01
2.079200000000000159e+01,2.353193980333181112e-01,2.460610110253116933e-01,-4.590501882350687124e-01,4.500262899013938722e-01
2.080399999999999849e+01,2.291606147091289347e-01,2.393017318985758979e-01,-4.553895675735650794e-01,4.470945353925234178e-01
2.081599999999999895e+01,2.218037303003218275e-01,2.335808930981360942e-01,-4.523515219989772684e-01,4.436797842491265187e-01
2.082799999999999940e+01,2.133665282857205581e-01,2.291866817463366623e-01,-4.500643748097695740e-01,4.398663572506966712e-01
2.083999999999999986e+01,2.040493218636194594e-01,2.264047581863931069e-01,-4.486474886199714462e-01,4.357783103013662673e-01
2.085200000000000031e+01,1.941424473271203821e-01,2.254912152103262790e-01,-4.481974628265730232e-01,4.315805290591560595e-01
2.086400000000000077e+01,1.840235734293043102e-01,2.266399323807295474e-01,-4.487725715155406192e-01,4.274743640711785586e-01
2.087600000000000122e+01,1.741413050708521537e-01,2.299487975849430210e-01,-4.503779389755258045e-01,4.236865203096680244e-01
2.088800000000000168e+01,1.649838874274575096e-01,2.353914853862312251e-01,-4.529548055011369811e-01,4.204512510353454191e-01
2.089999999999999858e+01,1.570355937179128414e-01,2.428022474199878766e-01,-4.563772521297676521e-01,4.179878075737419318e-01
2.091199999999999903e+01,1.507275303002727218e-01,2.518795072809441038e-01,-4.604585573975231716e-01,4.164769507787054459e-01
2.092399999999999949e+01,1.463923873377241114e-01,2.622099009596109420e-01,-4.649670857166184335e-01,4.160412933053785900e-01
2.093599999999999994e+01,1.442325738245354982e-01,2.733090147475746301e-01,-4.696490052401882664e-01,4.167336918598461559e-01
2.094800000000000040e+01,1.443078786178342565e-01,2.846705751152293629e-01,-4.742532649469478057e-01,4.185358889625253598e-01
2.096000000000000085e+01,1.465435429729639860e-01,2.958141006978852183e-01,-4.785539100760261011e-01,4.213668943792865385e-01
2.097200000000000131e+01,1.507545764387661635e-01,3.063225554559261821e-01,-4.823660304831236534e-01,4.250982929451164738e-01
2.098400000000000176e+01,1.566791382843915614e-01,3.158653297651768943e-01,-4.855537534107920439e-01,4.295725642340335049e-01
2.099599999999999866e+01,1.640134686578267331e-01,3.242061317227151740e-01,-4.880307843491937247e-01,4.346207358462956249e-01
2.100799999999999912e+01,1.724425828213701495e-01,3.311985713459797975e-01,-4.897553866350482510e-01,4.400768299811548268e-01
2.101999999999999957e+01,1.816635453563391622e-01,3.367737175534034066e-01,-4.907221706568935526e-01,4.457879640582017577e-01
2.103200000000000003e+01,1.914005526650667810e-01,3.409238887497254566e-01,-4.909528277877172608e-01,4.516201317260716275e-01
2.104400000000000048e+01,2.014127000945547530e-01,3.436860116167148593e-01,-4.904873410265068734e-01,4.574604013623089216e-01
2.105600000000000094e+01,2.114961077398390121e-01,3.451266688632763091e-01,-4.893765418443115078e-01,4.632165413310171953e-01
2.106800000000000139e+01,2.214822226560757001e-01,3.453298681758192323e-01,-4.876763423456443869e-01,4.688150485985748683e-01
2.107999999999999829e+01,2.312338792914934438e-01,3.443877799787364857e-01,-4.854436142080422179e-01,4.741983694354910406e-01
2.109199999999999875e+01,2.406403148309391449e-01,3.423942243943414732e-01,-4.827334958638340723e-01,4.793218706298271736e-01
2.110399999999999920e+01,2.496119480508507127e-01,3.394404713912425597e-01,-4.795978410815472381e-01,4.841509114300742156e-01
2.111599999999999966e+01,2.580754097427804816e-01,3.356128669234189066e-01,-4.760845274432373708e-01,4.886582064134158965e-01
2.112800000000000011e+01,2.659690797058912870e-01,3.309918384510163181e-01,-4.722373847906902733e-01,4.928215603990345195e-01
2.114000000000000057e+01,2.732392330613467313e-01,3.256519140113673938e-01,-4.680965571959979643e-01,4.966219903257466095e-01
2.115200000000000102e+01,2.798368104233987519e-01,3.196624787307439930e-01,-4.636991638639534341e-01,5.000422146420029357e-01
2.116400000000000148e+01,2.857147845476314396e-01,3.130890749930280714e-01,-4.590801683620876483e-01,5.030654781122904096e-01
2.117599999999999838e+01,2.908260857677904543e-01,3.059951203744025738e-01,-4.542733996869418034e-01,5.056746812699970395e-01
2.118799999999999883e+01,2.951220591543256000e-01,2.984439688171002802e-01,-4.493126929144906634e-01,5.078517937059100484e-01
2.119999999999999929e+01,2.985514507893106129e-01,2.905012752388299035e-01,-4.442331321728824611e-01,5.095775455709660173e-01
2.121199999999999974e+01,3.010599543386991428e-01,2.822376419019776428e-01,-4.390723848672185015e-01,5.108314099676668496e-01
2.122400000000000020e+01,3.025903890797782547e-01,2.737315255529955693e-01,-4.338721133528471996e-01,5.115919087896390050e-01
2.123600000000000065e+01,3.030836236781263016e-01,2.650723653529574175e-01,-4.286794377550229851e-01,5.118372944684556058e-01
2.124800000000000111e+01,3.024804019749041673e-01,2.563638493041035527e-01,-4.235483999119123433e-01,5.115466776844259655e-01
2.126000000000000156e+01,3.007242606515351246e-01,2.477271667256321919e-01,-4.185413417896516886e-01,5.107016826141449473e-01
2.127199999999999847e+01,2.977657421737617272e-01,2.393039924160857423e-01,-4.137300610904448561e-01,5.092887107750764253e-01
2.128399999999999892e+01,2.935680822406252499e-01,2.312588138638947688e-01,-4.091965430900600387e-01,5.073018733811281988e-01
2.129599999999999937e+01,2.881144651785371158e-01,2.237800534484923332e-01,-4.050329961820621771e-01,5.047465992347274222e-01
2.130799999999999983e+01,2.814167654090857784e-01,2.170792742657365604e-01,-4.013408514701846674e-01,5.016438284678745863e-01
2.132000000000000028e+01,2.735254032738752561e-01,2.113876332123005852e-01,-3.982283463280645308e-01,4.980345527109461545e-01
2.133200000000000074e+01,2.645395307386650963e-01,2.069487259254672584e-01,-3.958063316506972851e-01,4.939842602041060737e-01
2.134400000000000119e+01,2.546162559340374720e-01,2.040071444889560437e-01,-3.941820640112039253e-01,4.895866104553405762e-01
2.135600000000000165e+01,2.439771053367861819e-01,2.027925318059659865e-01,-3.934510051877395664e-01,4.849654476728457730e-01
2.136799999999999855e+01,2.329095739711241897e-01,2.034997174631335837e-01,-3.936870657769997450e-01,4.802741494852124093e-01
2.137999999999999901e+01,2.217616516833652573e-01,2.062666094464844779e-01,-3.949322569075102707e-01,4.756914031654337904e-01
2.139199999999999946e+01,2.109278544047293313e-01,2.111526883180587788e-01,-3.971872386760260665e-01,4.714128967500928469e-01
2.140399999999999991e+01,2.008266256811193085e-01,2.181218356399845515e-01,-4.004045891815932179e-01,4.676391256517911654e-01
2.141600000000000037e+01,1.918708453192490004e-01,2.270333812744840529e-01,-4.044865585560366572e-01,4.645604366670901264e-01
2.142800000000000082e+01,1.844351221227417681e-01,2.376443456835458934e-01,-4.092884914624947412e-01,4.623413098263208787e-01
2.144000000000000128e+01,1.788248890368268618e-01,2.496238937155684512e-01,-4.146280521524491891e-01,4.611063901153258926e-01
2.145199999999999818e+01,1.752524659428072729e-01,2.625784676843455623e-01,-4.202991362805550413e-01,4.609306690770303971e-01
2.146399999999999864e+01,1.738240006576316776e-01,2.760837243782149342e-01,-4.260883050186979881e-01,4.618354373024401438e-01
2.147599999999999909e+01,1.745388843052845806e-01,2.897180533674026948e-01,-4.317910894266677180e-01,4.637904065461088132e-01
2.148799999999999955e+01,1.773006272911319126e-01,3.030925161066203022e-01,-4.372257321613943759e-01,4.667211364710645571e-01
2.150000000000000000e+01,1.819361077672143612e-01,3.158733747555942939e-01,-4.422427298023649533e-01,4.705199897261639896e-01
2.151200000000000045e+01,1.882190976924379699e-01,3.277953956704784955e-01,-4.467295912011712278e-01,4.750584964637571961e-01
2.152400000000000091e+01,1.958940970923523928e-01,3.386661093888186369e-01,-4.506111875833552771e-01,4.801992154152138204e-01
2.153600000000000136e+01,2.046974455829564110e-01,3.483626602137662731e-01,-4.538467062386840056e-01,4.858057396127490879e-01
2.154800000000000182e+01,2.143739560873112460e-01,3.568235799215143111e-01,-4.564244671355200400e-01,4.917501648699059147e-01
2.155999999999999872e+01,2.246885147200967103e-01,3.640378531825851915e-01,-4.583557905980685243e-01,4.979179230893674979e-01
2.157199999999999918e+01,2.354329729438331686e-01,3.700332408420473063e-01,-4.596688453616783465e-01,5.042102809718160827e-01
2.158399999999999963e+01,2.464291603812293341e-01,3.748652433280172946e-01,-4.604030867684601458e-01,5.105450056956614135e-01
2.159600000000000009e+01,2.575290244293124142e-01,3.786075095654507505e-01,-4.606046023834971526e-01,5.168557433312187532e-01
2.160800000000000054e+01,2.686128604125869179e-01,3.813440308344351881e-01,-4.603224596622164655e-01,5.230906013443498148e-01
2.162000000000000099e+01,2.795864367992827448e-01,3.831631367505394792e-01,-4.596060057745888772e-01,5.292103260218329330e-01
2.163200000000000145e+01,2.903776220709626266e-01,3.841531205898686685e-01,-4.585029920724442709e-01,5.351863560132077424e-01
2.164399999999999835e+01,3.009329311038843047e-01,3.843992327862134073e-01,-4.570583665773116366e-01,5.409989353962590952e-01
2.165599999999999881e+01,3.112142524119395626e-01,3.839817608695804685e-01,-4.553135792569579232e-01,5.466353924214270021e-01
2.166799999999999926e+01,3.211958997134286564e-01,3.829749329444189776e-01,-4.533062625084746666e-01,5.520886343961821652e-01
2.167999999999999972e+01,3.308620492382859379e-01,3.814464194306709799e-01,-4.510701734097922189e-01,5.573558721879591227e-01
2.169200000000000017e+01,3.402045713110146141e-01,3.794572510100027163e-01,-4.486353090369574192e-01,5.624375653606098480e-01
2.170400000000000063e+01,3.492212335980334759e-01,3.770620120580380208e-01,-4.460281283946507802e-01,5.673365668758408864e-01
2.171600000000000108e+01,3.579142373715665237e-01,3.743092047407133305e-01,-4.432718330309725063e-01,5.720574411237071555e-01
2.172800000000000153e+01,3.662890419597630287e-01,3.712417082585879324e-01,-4.403866730294830334e-01,5.766059281688410421e-01
2.173999999999999844e+01,3.743534323666433683e-01,3.678972806137233431e-01,-4.373902561570886527e-01,5.809885286584870467e-01
2.175199999999999889e+01,3.821167881910182418e-01,3.643090675497915321e-01,-4.342978460756918291e-01,5.852121866036468223e-01
2.176399999999999935e+01,3.895895167066388831e-01,3.605060959838015666e-01,-4.311226413115269440e-01,5.892840504451201111e-01
2.177599999999999980e+01,3.967826182078212915e-01,3.565137382958839529e-01,-4.278760306750031273e-01,5.932112960018368630e-01
2.178800000000000026e+01,4.037073568514705224e-01,3.523541401407792595e-01,-4.245678235007477874e-01,5.970009978304683385e-01
2.180000000000000071e+01,4.103750149122016855e-01,3.480466087049030599e-01,-4.212064548012491305e-01,6.006600380970839037e-01
2.181200000000000117e+01,4.167967124718159333e-01,3.436079611185838267e-01,-4.177991664800003169e-01,6.041950442462618032e-01
2.182400000000000162e+01,4.229832780576908702e-01,3.390528344730860399e-01,-4.143521663408948341e-01,6.076123485669601143e-01
2.183599999999999852e+01,4.289451586571427777e-01,3.343939599056494072e-01,-4.108707669119824324e-01,6.109179642353730344e-01
2.184799999999999898e+01,4.346923599262524918e-01,3.296424037357930104e-01,-4.073595061818258145e-01,6.141175736084734105e-01
2.185999999999999943e+01,4.402344093524649393e-01,3.248077788297420443e-01,-4.038222523013391685e-01,6.172165254942477697e-01
2.187199999999999989e+01,4.455803366914126706e-01,3.198984293545295565e-01,-4.002622941848681393e-01,6.202198388782542704e-01
