Frequency, Re(SMin1Min1), Im(SMin1Min1), Re(SMax1Min1), Im(SMax1Min1)
2.000000000000000000e+01,-1.375936470014043900e-01,1.207099281388072792e-01,-5.126353485192931547e-01,1.833731996512380502e-01
2.001200000000000045e+01,-1.392628507067020238e-01,1.389161924276010318e-01,-5.208760206647239377e-01,1.866970183212795231e-01
2.002400000000000091e+01,-1.395654447373495533e-01,1.567814346138729220e-01,-5.287028802267875749e-01,1.906001201692410774e-01
2.003600000000000136e+01,-1.385942561087533109e-01,1.742015491112782477e-01,-5.360869296401544748e-01,1.950189886522878668e-01
2.004799999999999827e+01,-1.364471803312043985e-01,1.910897242971447696e-01,-5.430079379231507186e-01,1.998915971163358896e-01
2.005999999999999872e+01,-1.332244166372233418e-01,2.073755851766311276e-01,-5.494534447489294315e-01,2.051583966580167173e-01
2.007199999999999918e+01,-1.290261347026619432e-01,2.230039996066102703e-01,-5.554177286000155922e-01,2.107630466266753599e-01
2.008399999999999963e+01,-1.239505761236651959e-01,2.379336663418980535e-01,-5.609007865056736541e-01,2.166529156076986706e-01
2.009600000000000009e+01,-1.180925707330466035e-01,2.521355861968154755e-01,-5.659073605518372130e-01,2.227793851988951468e-01
2.010800000000000054e+01,-1.115424321115078415e-01,2.655914986938189282e-01,-5.704460352736042683e-01,2.290979901519506756e-01
2.012000000000000099e+01,-1.043851873938979463e-01,2.782923477252359223e-01,-5.745284206349666745e-01,2.355684273781884497e-01
2.013200000000000145e+01,-9.670009243826618861e-02,2.902368223561499483e-01,-5.781684277227301383e-01,2.421544637032984615e-01
2.014399999999999835e+01,-8.856038331796682594e-02,3.014300037461526971e-01,-5.813816384814949334e-01,2.488237687555321653e-01
2.015599999999999881e+01,-8.003321771538497720e-02,3.118821366120751448e-01,-5.841847666182686805e-01,2.555476954926431121e-01
2.016799999999999926e+01,-7.117976412214932491e-02,3.216075337154128966e-01,-5.865952039688066000e-01,2.623010269785001070e-01
2.017999999999999972e+01,-6.205540197608839376e-02,3.306236143490282053e-01,-5.886306448842650862e-01,2.690617043518040430e-01
2.019200000000000017e+01,-5.271000138922193878e-02,3.389500724110180996e-01,-5.903087803167426095e-01,2.758105476286428215e-01
2.020400000000000063e+01,-4.318825652536224108e-02,3.466081660361777783e-01,-5.916470530336878086e-01,2.825309781158039102e-01
2.021600000000000108e+01,-3.353005170425917003e-02,3.536201185506310241e-01,-5.926624655863536040e-01,2.892087487982982763e-01
2.022800000000000153e+01,-2.377084379244422813e-02,3.600086193955471248e-01,-5.933714331450723467e-01,2.958316870837280899e-01
2.023999999999999844e+01,-1.394204832529694418e-02,3.657964133459245537e-01,-5.937896739769836785e-01,3.023894526989913678e-01
2.025199999999999889e+01,-4.071420086364062677e-03,3.710059665933678752e-01,-5.939321310926241049e-01,3.088733122921859531e-01
2.026399999999999935e+01,5.816578418008173414e-03,3.756591988782482239e-01,-5.938129193641229486e-01,3.152759313422714982e-01
2.027599999999999980e+01,1.570042495283210590e-02,3.797772717007363852e-01,-5.934452931773379625e-01,3.215911832704423379e-01
2.028800000000000026e+01,2.556120463199856169e-02,3.833804236030620149e-01,-5.928416303961066003e-01,3.278139751334771534e-01
2.030000000000000071e+01,3.538229732466550981e-02,3.864878445192934664e-01,-5.920134290737045779e-01,3.339400889195545674e-01
2.031200000000000117e+01,4.514908558174764164e-02,3.891175821806496793e-01,-5.909713139374760393e-01,3.399660372257833907e-01
2.032400000000000162e+01,5.484868247383369727e-02,3.912864745098414421e-01,-5.897250501965792813e-01,3.458889319444164445e-01
2.033599999999999852e+01,6.446967813321555218e-02,3.930101028175250755e-01,-5.882835626826052877e-01,3.517063644971297753e-01
2.034799999999999898e+01,7.400190334850695328e-02,3.943027614189693053e-01,-5.866549587341528538e-01,3.574162961141726935e-01
2.035999999999999943e+01,8.343620823145669885e-02,3.951774400182822000e-01,-5.848465535862528153e-01,3.630169566418918192e-01
2.037199999999999989e+01,9.276425372874329278e-02,3.956458158657856772e-01,-5.828648973319459081e-01,3.685067503658490118e-01
2.038400000000000034e+01,1.019783135591045692e-01,3.957182532900038185e-01,-5.807158027949009815e-01,3.738841673476170357e-01
2.039600000000000080e+01,1.110710839954366230e-01,3.954038087510625687e-01,-5.784043738977114879e-01,3.791476987841226332e-01
2.040800000000000125e+01,1.200354987636958054e-01,3.947102400714280201e-01,-5.759350343397576788e-01,3.842957549033435005e-01
2.042000000000000171e+01,1.288645461801458669e-01,3.936440189895996644e-01,-5.733115566211395286e-01,3.893265839052542088e-01
2.043199999999999861e+01,1.375510854835168550e-01,3.922103466718562803e-01,-5.705370916756482558e-01,3.942381904393911229e-01
2.044399999999999906e+01,1.460876591293214233e-01,3.904131723289011591e-01,-5.676141996177734850e-01,3.990282520789987242e-01
2.045599999999999952e+01,1.544662975932788729e-01,3.882552156444731839e-01,-5.645448823793532966e-01,4.036940322064678788e-01
2.046799999999999997e+01,1.626783129763707814e-01,3.857379943630499519e-01,-5.613306193258900123e-01,4.082322876679461698e-01
2.048000000000000043e+01,1.707140774163290464e-01,3.828618591414605365e-01,-5.579724073186504985e-01,4.126391694909390395e-01
2.049200000000000088e+01,1.785627819969552721e-01,3.796260386906449291e-01,-5.544708071476022182e-01,4.169101148958619940e-01
2.050400000000000134e+01,1.862121715236799147e-01,3.760286993753488849e-01,-5.508259988275345798e-01,4.210397287840548786e-01
2.051599999999999824e+01,1.936482502308458087e-01,3.720670248704163741e-01,-5.470378489555821622e-01,4.250216528715718423e-01
2.052799999999999869e+01,2.008549532526111570e-01,3.677373232764859501e-01,-5.431059942085809666e-01,4.288484206916286512e-01
2.053999999999999915e+01,2.078137786029175260e-01,3.630351713764556343e-01,-5.390299461546083082e-01,4.325112968556363846e-01
2.055199999999999960e+01,2.145033745907344025e-01,3.579556085855576386e-01,-5.348092239105673995e-01,4.360000993118433033e-01
2.056400000000000006e+01,2.208990782243014928e-01,3.524933967468266705e-01,-5.304435228453306950e-01,4.393030039702265910e-01
2.057600000000000051e+01,2.269724014975259829e-01,3.466433663939417764e-01,-5.259329295507033653e-01,4.424063321130314308e-01
2.058800000000000097e+01,2.326904648863138969e-01,3.404008755822028887e-01,-5.212781957121751519e-01,4.452943226788460551e-01
2.060000000000000142e+01,2.380153814572449344e-01,3.337624139770518084e-01,-5.164810863077944347e-01,4.479488940657281870e-01
2.061199999999999832e+01,2.429036014646359931e-01,3.267263925979818073e-01,-5.115448206837165390e-01,4.503494039118395853e-01
2.062399999999999878e+01,2.473052372166457125e-01,3.192941682700465855e-01,-5.064746283233980684e-01,4.524724208618604582e-01
2.063599999999999923e+01,2.511634026865975367e-01,3.114713609265661876e-01,-5.012784441782466294e-01,4.542915302242916398e-01
2.064799999999999969e+01,2.544136235496667897e-01,3.032695303554158728e-01,-4.959677705884449894e-01,4.557772064010696678e-01
2.066000000000000014e+01,2.569834030696184768e-01,2.947082847887055324e-01,-4.905587329504981220e-01,4.568967998306817102e-01
2.067200000000000060e+01,2.587920696993367686e-01,2.858178934938758187e-01,-4.850733525487881947e-01,4.576147056693095072e-01
2.068400000000000105e+01,2.597510851872850135e-01,2.766424637881457760e-01,-4.795410495750367930e-01,4.578928059313125409e-01
2.069600000000000151e+01,2.597650578643568298e-01,2.672437114818361770e-01,-4.740003683151139957e-01,4.576913058302710668e-01
2.070799999999999841e+01,2.587337820166642488e-01,2.577052911692668813e-01,-4.685008794555312606e-01,4.569701163445780145e-01
2.071999999999999886e+01,2.565557023547148097e-01,2.481375442904782957e-01,-4.631051550517639726e-01,4.556909631946681749e-01
2.073199999999999932e+01,2.531332642132667621e-01,2.386823520854374492e-01,-4.578906235477041564e-01,4.538204171473498305e-01
2.074399999999999977e+01,2.483806221916033397e-01,2.295175339802965897e-01,-4.529509916549921966e-01,4.513340246483862339e-01
2.075600000000000023e+01,2.422340906438830155e-01,2.208599085102756210e-01,-4.483967708323580714e-01,4.482216459555994348e-01
2.076800000000000068e+01,2.346654586952434396e-01,2.129657608632354038e-01,-4.443542878305783983e-01,4.444939484601770352e-01
2.078000000000000114e+01,2.256977838114501422e-01,2.061271157407360277e-01,-4.409624354673347679e-01,4.401897251023809687e-01
2.079200000000000159e+01,2.154224703161009280e-01,2.006620441346695372e-01,-4.383664078954931931e-01,4.353832994337796802e-01
2.080399999999999849e+01,2.040153646585924907e-01,1.968974581942415647e-01,-4.367078691125930168e-01,4.301907744776949372e-01
2.081599999999999895e+01,1.917484481104269334e-01,1.951437189339285394e-01,-4.361115301035908831e-01,4.247733967005128397e-01
2.082799999999999940e+01,1.789928841195490283e-01,1.956620583609236241e-01,-4.366690032339137773e-01,4.193360512738536494e-01
2.083999999999999986e+01,1.662092631964781630e-01,1.986281886689793275e-01,-4.384219572154550160e-01,4.141191565310263778e-01
2.085200000000000031e+01,1.539224365342048428e-01,2.040979772659085589e-01,-4.413476889055136798e-01,4.093832084138193106e-01
2.086400000000000077e+01,1.426814940946254662e-01,2.119827022050950749e-01,-4.453507499212307486e-01,4.053869281380911849e-01
2.087600000000000122e+01,1.330096090218038374e-01,2.220410531298371848e-01,-4.502637191487776080e-01,4.023619868393579768e-01
2.088800000000000168e+01,1.253522149103692418e-01,2.338921260990610429e-01,-4.558584340620518982e-01,4.004888634425114446e-01
2.089999999999999858e+01,1.200336059457777632e-01,2.470487214495853123e-01,-4.618664060871239263e-01,3.998787418283963890e-01
2.091199999999999903e+01,1.172305191100620342e-01,2.609649885193202623e-01,-4.680046838303401069e-01,4.005651101530737224e-01
2.092399999999999949e+01,1.169669441247424557e-01,2.750889506582216981e-01,-4.740020939844246106e-01,4.025062634413287821e-01
2.093599999999999994e+01,1.191290010840635599e-01,2.889100156701623345e-01,-4.796210878167139202e-01,4.055971943779838607e-01
2.094800000000000040e+01,1.234943103339703474e-01,3.019941010765843092e-01,-4.846720921155778794e-01,4.096874118278233667e-01
2.096000000000000085e+01,1.297682252360530808e-01,3.140031142963865540e-01,-4.890194967788089597e-01,4.146006059486560535e-01
2.097200000000000131e+01,1.376197390153219569e-01,3.246995119870522695e-01,-4.925803404783822281e-01,4.201526848525023450e-01
2.098400000000000176e+01,1.467119668528096832e-01,3.339393260686743248e-01,-4.953178680279864965e-01,4.261660036834743481e-01
2.099599999999999866e+01,1.567246924920794593e-01,3.416580521621447875e-01,-4.972323748239472208e-01,4.324789866371822611e-01
2.100799999999999912e+01,1.673686689644653391e-01,3.478534884307078467e-01,-4.983513816680948394e-01,4.389513986766835352e-01
2.101999999999999957e+01,1.783927740837298881e-01,3.525685962213158664e-01,-4.987205394372324907e-01,4.454661177284064966e-01
2.103200000000000003e+01,1.895857471055113486e-01,3.558762722888899610e-01,-4.983960170812229418e-01,4.519284469060562137e-01
2.104400000000000048e+01,2.007742873245828286e-01,3.578669106252318488e-01,-4.974386226083655771e-01,4.582639300108089508e-01
2.105600000000000094e+01,2.118190323089094995e-01,3.586389196856782369e-01,-4.959095832599018094e-01,4.644154312488898428e-01
2.106800000000000139e+01,2.226095545225511285e-01,3.582919426868206858e-01,-4.938677445269349375e-01,4.703400109404456408e-01
2.107999999999999829e+01,2.330591443840145660e-01,3.569223375546028421e-01,-4.913678920360652902e-01,4.760059273257860601e-01
2.109199999999999875e+01,2.430998435391739654e-01,3.546204302525723939e-01,-4.884599107155001008e-01,4.813899409225139148e-01
2.110399999999999920e+01,2.526779694279782662e-01,3.514690946785911652e-01,-4.851885379944924637e-01,4.864749928250760025e-01
2.111599999999999966e+01,2.617502237573555712e-01,3.475432880821883730e-01,-4.815935202233183055e-01,4.912482634462216335e-01
2.112800000000000011e+01,2.702803874492954450e-01,3.429102551698317569e-01,-4.777100320033394465e-01,4.956995827873560967e-01
2.114000000000000057e+01,2.782365564787693812e-01,3.376301922179792414e-01,-4.735692613064432788e-01,4.998201477496179157e-01
2.115200000000000102e+01,2.855888529020150224e-01,3.317572286070718524e-01,-4.691990976675894931e-01,5.036014988349877264e-01
2.116400000000000148e+01,2.923075430626749793e-01,3.253406360153092702e-01,-4.646248868562466439e-01,5.070347126909753310e-01
2.117599999999999838e+01,2.983615035645124647e-01,3.184262161454565754e-01,-4.598702345497106547e-01,5.101097750656861107e-01
2.118799999999999883e+01,3.037169909045359106e-01,3.110578481384930205e-01,-4.549578550211396122e-01,5.128151090021452196e-01
2.119999999999999929e+01,3.083366904102308736e-01,3.032791984892667658e-01,-4.499104698507000455e-01,5.151372446074206080e-01
2.121199999999999974e+01,3.121790433805551324e-01,2.951356104791166279e-01,-4.447517668940857982e-01,5.170606291829338286e-01
2.122400000000000020e+01,3.151978779412085707e-01,2.866761971917141660e-01,-4.395074314379671665e-01,5.185675899246064979e-01
2.123600000000000065e+01,3.173423992594753273e-01,2.779561613615138538e-01,-4.342062593435900841e-01,5.196384759158544364e-01
2.124800000000000111e+01,3.185576284051051532e-01,2.690393547290219067e-01,-4.288813551704524496e-01,5.202520217177989403e-01
2.126000000000000156e+01,3.187854154798673845e-01,2.600010660910394567e-01,-4.235714053508223831e-01,5.203859910510707509e-01
2.127199999999999847e+01,3.179661892298810133e-01,2.509309864790754685e-01,-4.183219955095258680e-01,5.200181745905801955e-01
2.128399999999999892e+01,3.160416370446711420e-01,2.419362366984989521e-01,-4.131869097545775027e-01,5.191278281774941439e-01
2.129599999999999937e+01,3.129585268195060888e-01,2.331442518350377857e-01,-4.082293061898660258e-01,5.176976423123124116e-01
2.130799999999999983e+01,3.086738710084797610e-01,2.247051965619228653e-01,-4.035226062360275923e-01,5.157163236877514434e-01
2.132000000000000028e+01,3.031615725974379227e-01,2.167934372553563527e-01,-3.991508677197464494e-01,5.131818351041146364e-01
2.133200000000000074e+01,2.964205568823219950e-01,2.096074362281832304e-01,-3.952083405987734666e-01,5.101052696596014568e-01
2.134400000000000119e+01,2.884841556081446101e-01,2.033672915640014900e-01,-3.917978454305821034e-01,5.065152171586628782e-01
2.135600000000000165e+01,2.794301548469210750e-01,1.983090780195010949e-01,-3.890275948094404912e-01,5.024623090314385143e-01
2.136799999999999855e+01,2.693904557700226854e-01,1.946752287748545474e-01,-3.870061341007950406e-01,4.980234099740630804e-01
2.137999999999999901e+01,2.585587884499653266e-01,1.927005247956399547e-01,-3.858352515598463262e-01,4.933046911429598835e-01
2.139199999999999946e+01,2.471944917128755248e-01,1.925938994425046014e-01,-3.856010304104882103e-01,4.884426346428084598e-01
2.140399999999999991e+01,2.356202232630909277e-01,1.945172211873090473e-01,-3.863636823305826584e-01,4.836019770847280741e-01
2.141600000000000037e+01,2.242118166819046798e-01,1.985633573885443037e-01,-3.881473452165458693e-01,4.789698064541170197e-01
2.142800000000000082e+01,2.133795116972630745e-01,2.047368548576336822e-01,-3.909315020619533176e-01,4.747455513937366978e-01
2.144000000000000128e+01,2.035414156081839787e-01,2.129410840420894180e-01,-3.946458794987078300e-01,4.711274189981981553e-01
2.145199999999999818e+01,1.950919855405480463e-01,2.229752894914646955e-01,-3.991704261735936621e-01,4.682967792412730534e-01
2.146399999999999864e+01,1.883699723877643450e-01,2.345435104220868483e-01,-4.043411855545082645e-01,4.664027688164269492e-01
2.147599999999999909e+01,1.836309926897027600e-01,2.472750295113308738e-01,-4.099617030209453672e-01,4.655496766545049181e-01
2.148799999999999955e+01,1.810292900584837272e-01,2.607535257010638596e-01,-4.158183800702193178e-01,4.657892884540010825e-01
2.150000000000000000e+01,1.806113952694224367e-01,2.745502610388670939e-01,-4.216973198961078695e-01,4.671193692229406169e-01
2.151200000000000045e+01,1.823218743834346123e-01,2.882560297254537218e-01,-4.273999937831876594e-01,4.694881629361035147e-01
2.152400000000000091e+01,1.860189895014998651e-01,3.015073594345550334e-01,-4.327555357008570081e-01,4.728036124655103922e-01
2.153600000000000136e+01,1.914965753162893303e-01,3.140041910900436273e-01,-4.376284215900986818e-01,4.769452946436593122e-01
2.154800000000000182e+01,1.985080413582120673e-01,3.255183067283754506e-01,-4.419213550458125361e-01,4.817769507290252662e-01
2.155999999999999872e+01,2.067889941266491949e-01,3.358935023295607780e-01,-4.455740431319115125e-01,4.871578712269435396e-01
2.157199999999999918e+01,2.160761185500787995e-01,3.450395567739609204e-01,-4.485590345722426098e-01,4.929520347091616572e-01
2.158399999999999963e+01,2.261212121504040662e-01,3.529223836040524809e-01,-4.508759023500423235e-01,4.990345642813579508e-01
2.159600000000000009e+01,2.367003040359666188e-01,3.595525399979281889e-01,-4.525448879537669056e-01,5.052955904586814428e-01
2.160800000000000054e+01,2.476184711299614927e-01,3.649737567355501588e-01,-4.536008229367374245e-01,5.116419321324525704e-01
2.162000000000000099e+01,2.587112898300401587e-01,3.692525649722843140e-01,-4.540878209848785985e-01,5.179971413826106597e-01
2.163200000000000145e+01,2.698439171631221711e-01,3.724695739814051776e-01,-4.540549611898094806e-01,5.243004552532659623e-01
2.164399999999999835e+01,2.809086869436389633e-01,3.747125634147354667e-01,-4.535529886930583787e-01,5.305051172842866203e-01
2.165599999999999881e+01,2.918219238561632345e-01,3.760713019997508622e-01,-4.526319411098690404e-01,5.365764214281288913e-01
2.166799999999999926e+01,3.025204836506701356e-01,3.766338693752629418e-01,-4.513395525326305835e-01,5.424897219747228938e-01
2.167999999999999972e+01,3.129583550926856583e-01,3.764842061871935819e-01,-4.497202721379917612e-01,5.482285611009320991e-01
2.169200000000000017e+01,3.231035228196338926e-01,3.757006185472996918e-01,-4.478147443636554814e-01,5.537829958393682972e-01
2.170400000000000063e+01,3.329351911292413591e-01,3.743549922217628834e-01,-4.456596195601372212e-01,5.591481576626367023e-01
2.171600000000000108e+01,3.424414019999973413e-01,3.725125128413556697e-01,-4.432875896754523426e-01,5.643230467737125888e-01
2.172800000000000153e+01,3.516170391879263613e-01,3.702317308964909182e-01,-4.407275681630273279e-01,5.693095451731391421e-01
2.173999999999999844e+01,3.604621870367604730e-01,3.675648489340192504e-01,-4.380049546492885137e-01,5.741116236245101812e-01
2.175199999999999889e+01,3.689808017764178993e-01,3.645581409445172727e-01,-4.351419422227470468e-01,5.787347145523753511e-01
2.176399999999999935e+01,3.771796500513950878e-01,3.612524399809614595e-01,-4.321578386206926248e-01,5.831852233262396767e-01
2.177599999999999980e+01,3.850674709897625170e-01,3.576836500917718320e-01,-4.290693825969913444e-01,5.874701526934675844e-01
2.178800000000000026e+01,3.926543221151167495e-01,3.538832535937839752e-01,-4.258910439864755926e-01,5.915968182757076477e-01
2.180000000000000071e+01,3.999510744233099047e-01,3.498787955512799308e-01,-4.226353010544074418e-01,5.955726364018805175e-01
2.181200000000000117e+01,4.069690271512670932e-01,3.456943349917201980e-01,-4.193128921706170686e-01,5.994049687581536334e-01
2.182400000000000162e+01,4.137196176875689302e-01,3.413508576653754845e-01,-4.159330411145956141e-01,6.031010112142752844e-01
2.183599999999999852e+01,4.202142064833720991e-01,3.368666486805190763e-01,-4.125036567408266741e-01,6.066677166688621003e-01
2.184799999999999898e+01,4.264639206338600164e-01,3.322576256115080118e-01,-4.090315085696851205e-01,6.101117438401231219e-01
2.185999999999999943e+01,4.324795430151710529e-01,3.275376340570165246e-01,-4.055223803069628041e-01,6.134394256426768388e-01
2.187199999999999989e+01,4.382714365250729438e-01,3.227187083951126856e-01,-4.019812034698824754e-01,6.166567521803215657e-01
2.188400000000000034e+01,4.438494951521618215e-01,3.178113008405935025e-01,-3.984121733049477143e-01,6.197693644973791827e-01
