Frequency, Re(SMin1Min1), Im(SMin1Min1), Re(SMax1Min1), Im(SMax1Min1)
2.000000000000000000e+01,-2.735555453623902955e-01,2.150247975904714670e-01,-5.837694203840867457e-01,1.291257784816858545e-01
2.001200000000000045e+01,-2.612582549034021540e-01,2.247514493867439067e-01,-5.853800463498083362e-01,1.378021225501243618e-01
2.002400000000000091e+01,-2.486734663026881342e-01,2.340272016013902334e-01,-5.867375231796418955e-01,1.465271768325769330e-01
2.003600000000000136e+01,-2.358175215755855536e-01,2.428434412891825878e-01,-5.878411540121100121e-01,1.552924583403981762e-01
2.004799999999999827e+01,-2.227069292095935071e-01,2.511922280908431837e-01,-5.886905519850450519e-01,1.640895596272824997e-01
2.005999999999999872e+01,-2.093583309885080623e-01,2.590662867144322146e-01,-5.892856286429990487e-01,1.729101609870969114e-01
2.007199999999999918e+01,-1.957884702996891824e-01,2.664589975393005239e-01,-5.896265818941081038e-01,1.817460415069036828e-01
2.008399999999999963e+01,-1.820141620284301265e-01,2.733643855035567949e-01,-5.897138836145360274e-01,1.905890889725622150e-01
2.009600000000000009e+01,-1.680522641280517704e-01,2.797771074396155355e-01,-5.895482669955159905e-01,1.994313086318397765e-01
2.010800000000000054e+01,-1.539196509389176293e-01,2.856924380250135398e-01,-5.891307137246134529e-01,2.082648308272922189e-01
2.012000000000000099e+01,-1.396331883146370578e-01,2.911062545159287529e-01,-5.884624410887857593e-01,2.170819175175431048e-01
2.013200000000000145e+01,-1.252097105995218784e-01,2.960150204306745692e-01,-5.875448890824568338e-01,2.258749677117222743e-01
2.014399999999999835e+01,-1.106659994874370362e-01,3.004157683490391029e-01,-5.863797075991356023e-01,2.346365218469133873e-01
2.015599999999999881e+01,-9.601876477931149678e-02,3.043060819903022352e-01,-5.849687437802959522e-01,2.433592651431954190e-01
2.016799999999999926e+01,-8.128462704431634045e-02,3.076840777292766393e-01,-5.833140295900314243e-01,2.520360299748236610e-01
2.017999999999999972e+01,-6.648010217813421496e-02,3.105483857056512420e-01,-5.814177696789779581e-01,2.606597972995484125e-01
2.019200000000000017e+01,-5.162158784148856983e-02,3.128981306764702652e-01,-5.792823295958637875e-01,2.692236971908747445e-01
2.020400000000000063e+01,-3.672535175225857818e-02,3.147329127558899375e-01,-5.769102243997471513e-01,2.777210085201951006e-01
2.021600000000000108e+01,-2.180752179571007060e-02,3.160527881807779771e-01,-5.743041077210320200e-01,2.861451578377880445e-01
2.022800000000000153e+01,-6.884077909889489005e-03,3.168582502336428353e-01,-5.714667613146148240e-01,2.944897175023072355e-01
2.023999999999999844e+01,8.029154304262514641e-03,3.171502104480996009e-01,-5.684010851432581557e-01,3.027484031098682249e-01
2.025199999999999889e+01,2.291650830395286845e-02,3.169299802149577738e-01,-5.651100880251179737e-01,3.109150702734913563e-01
2.026399999999999935e+01,3.776247971829595207e-02,3.161992529006575348e-01,-5.615968788748024743e-01,3.189837108040959879e-01
2.027599999999999980e+01,5.255172792042051011e-02,3.149600865820199047e-01,-5.578646585630755439e-01,3.269484483434021982e-01
2.028800000000000026e+01,6.726907612721749752e-02,3.132148874954982509e-01,-5.539167124165961242e-01,3.348035334986121381e-01
2.030000000000000071e+01,8.189951009859548769e-02,3.109663942918313717e-01,-5.497564033750846901e-01,3.425433385273776166e-01
2.031200000000000117e+01,9.642817551049982783e-02,3.082176631810919498e-01,-5.453871658201800976e-01,3.501623516202666542e-01
2.032400000000000162e+01,1.108403740767265194e-01,3.049720540470483576e-01,-5.408125000868232446e-01,3.576551708262158402e-01
2.033599999999999852e+01,1.251215584955444049e-01,3.012332176038434728e-01,-5.360359676650952032e-01,3.650164976640986603e-01
2.034799999999999898e+01,1.392573262967177761e-01,2.970050836634066105e-01,-5.310611870977285376e-01,3.722411304616556893e-01
2.035999999999999943e+01,1.532334126637600324e-01,2.922918505768880015e-01,-5.258918305759464618e-01,3.793239574594403085e-01
2.037199999999999989e+01,1.670356823045480998e-01,2.870979759095904082e-01,-5.205316212340893589e-01,3.862599497149253325e-01
2.038400000000000034e+01,1.806501204410559946e-01,2.814281684057024502e-01,-5.149843311414242786e-01,3.930441538372975163e-01
2.039600000000000080e+01,1.940628229856511955e-01,2.752873812965812017e-01,-5.092537799878664728e-01,3.996716845791444817e-01
2.040800000000000125e+01,2.072599859670363476e-01,2.686808070050683006e-01,-5.033438344588192503e-01,4.061377173055583656e-01
2.042000000000000171e+01,2.202278942636786696e-01,2.616138732984521487e-01,-4.972584082938033556e-01,4.124374803538859990e-01
2.043199999999999861e+01,2.329529096956435841e-01,2.540922409442774033e-01,-4.910014630228707322e-01,4.185662472889726260e-01
2.044399999999999906e+01,2.454214585177574570e-01,2.461218029272861652e-01,-4.845770093761290198e-01,4.245193290474926218e-01
2.045599999999999952e+01,2.576200183466317850e-01,2.377086852927489669e-01,-4.779891093637130273e-01,4.302920659509230639e-01
2.046799999999999997e+01,2.695351045423686753e-01,2.288592496921391939e-01,-4.712418790285774484e-01,4.358798195486707772e-01
2.048000000000000043e+01,2.811532560508106515e-01,2.195800977238160923e-01,-4.643394918830781037e-01,4.412779642294037963e-01
2.049200000000000088e+01,2.924610206951853697e-01,2.098780771848165749e-01,-4.572861830547633732e-01,4.464818785082354524e-01
2.050400000000000134e+01,3.034449398861018832e-01,1.997602903841567135e-01,-4.500862541906519576e-01,4.514869358581415915e-01
2.051599999999999824e+01,3.140915326964324739e-01,1.892341047163133561e-01,-4.427440792074244236e-01,4.562884949032343651e-01
2.052799999999999869e+01,3.243872792241155878e-01,1.783071657617891770e-01,-4.352641110356655352e-01,4.608818887269864328e-01
2.053999999999999915e+01,3.343186031432812677e-01,1.669874132774915865e-01,-4.276508896021465334e-01,4.652624129676963260e-01
2.055199999999999960e+01,3.438718533278287692e-01,1.552831005735579029e-01,-4.199090514443128419e-01,4.694253122761990471e-01
2.056400000000000006e+01,3.530332844304575057e-01,1.432028179599543760e-01,-4.120433415858226200e-01,4.733657646005068331e-01
2.057600000000000051e+01,3.617890363312161739e-01,1.307555212042143811e-01,-4.040586286658595094e-01,4.770788626527473486e-01
2.058800000000000097e+01,3.701251124617362942e-01,1.179505662953177075e-01,-3.959599248749867129e-01,4.805595918400933364e-01
2.060000000000000142e+01,3.780273572140669947e-01,1.047977522861399807e-01,-3.877524131010918196e-01,4.838028039803178859e-01
2.061199999999999832e+01,3.854814330386661103e-01,9.130737461634842733e-02,-3.794414849553241487e-01,4.868031864326934355e-01
2.062399999999999878e+01,3.924727985591285884e-01,7.749029211687155638e-02,-3.710327951692840576e-01,4.895552271653588194e-01
2.063599999999999923e+01,3.989866902930448433e-01,6.335801184697957555e-02,-3.625323403207640904e-01,4.920531783268257686e-01
2.064799999999999969e+01,4.050081126910203833e-01,4.892279690556402411e-02,-3.539465728094019492e-01,4.942910251007337497e-01
2.066000000000000014e+01,4.105218446452343906e-01,3.419780308417089132e-02,-3.452825636304960866e-01,4.962624746167720313e-01
2.067200000000000060e+01,4.155124759529738587e-01,1.919724999502068000e-02,-3.365482272989067103e-01,4.979609936586411600e-01
2.068400000000000105e+01,4.199644950048275205e-01,3.936629715347035596e-03,-3.277526133970319333e-01,4.993799457005521636e-01
2.069600000000000151e+01,4.238624592822441972e-01,-1.156705150141528089e-02,-3.189062402467727764e-01,5.005129055431010165e-01
2.070799999999999841e+01,4.271912915970735858e-01,-2.729501936989144756e-02,-3.100213801480194431e-01,5.013542494662713844e-01
2.071999999999999886e+01,4.299367521246605373e-01,-4.322651731937605241e-02,-3.011120906146118048e-01,5.019000898551621015e-01
2.073199999999999932e+01,4.320861267621978752e-01,-5.933873296678777304e-02,-2.921936523357618332e-01,5.021494709421365776e-01
2.074399999999999977e+01,4.336291236980266417e-01,-7.560702996537115028e-02,-2.832810598214334785e-01,5.021054026821987204e-01
2.075600000000000023e+01,4.345588535491382021e-01,-9.200569973011127334e-02,-2.743865702494048264e-01,5.017748912099266878e-01
2.076800000000000068e+01,4.348725725522125107e-01,-1.085094154228227470e-01,-2.655171683751688660e-01,5.011670966312568032e-01
2.078000000000000114e+01,4.345716529396954630e-01,-1.250953550743722498e-01,-2.566736045530628729e-01,5.002896888580020685e-01
2.079200000000000159e+01,4.336601973380555530e-01,-1.417455094538420668e-01,-2.478522501501120301e-01,4.991450640549889295e-01
2.080399999999999849e+01,4.321420972080878276e-01,-1.584481671898831379e-01,-2.390491190852182257e-01,4.977286995454017204e-01
2.081599999999999895e+01,4.300172045705550894e-01,-1.751974381538000947e-01,-2.302637627821984001e-01,4.960304968881514287e-01
2.082799999999999940e+01,4.272781540035527903e-01,-1.919903819448321447e-01,-2.215011305084430004e-01,4.940378669778074383e-01
2.083999999999999986e+01,4.239093989217444514e-01,-2.088226315267259769e-01,-2.127712361226790361e-01,4.917386381475749024e-01
2.085200000000000031e+01,4.198889213123180864e-01,-2.256843356223698083e-01,-2.040876835494081498e-01,4.891227345456623521e-01
2.086400000000000077e+01,4.151916471870391590e-01,-2.425579596729349474e-01,-1.954661172231616784e-01,4.861826529118841167e-01
2.087600000000000122e+01,4.097929749456885595e-01,-2.594182926215822249e-01,-1.869231127149405258e-01,4.829132403171531029e-01
2.088800000000000168e+01,4.036712597348848797e-01,-2.762339423638163760e-01,-1.784755637351833346e-01,4.793112343415248389e-01
2.089999999999999858e+01,3.968089563142276899e-01,-2.929692952447393028e-01,-1.701404293632000075e-01,4.753748238600015164e-01
2.091199999999999903e+01,3.891927337641408746e-01,-3.095862112763182461e-01,-1.619346872935822357e-01,4.711033241815099637e-01
2.092399999999999949e+01,3.808130505645140884e-01,-3.260451718096030738e-01,-1.538753823265441856e-01,4.664969742225525962e-01
2.093599999999999994e+01,3.716635790411295104e-01,-3.423059035165473274e-01,-1.459797057799531173e-01,4.615568321570691634e-01
2.094800000000000040e+01,3.617406971643060132e-01,-3.583276263167082809e-01,-1.382650738159505455e-01,4.562847414573623084e-01
2.096000000000000085e+01,3.510431307769786291e-01,-3.740690799840633018e-01,-1.307491912098728004e-01,4.506833442209244867e-01
2.097200000000000131e+01,3.395717531273974577e-01,-3.894884457541761824e-01,-1.234500963891535519e-01,4.447561253172197526e-01
2.098400000000000176e+01,3.273295167983399367e-01,-4.045432361147038858e-01,-1.163861876373956938e-01,4.385074764600837560e-01
2.099599999999999866e+01,3.143214860433306557e-01,-4.191901931024669126e-01,-1.095762317722182855e-01,4.319427732943236231e-01
2.100799999999999912e+01,3.005549411045687624e-01,-4.333852145876780360e-01,-1.030393568020780415e-01,4.250684612057798462e-01
2.101999999999999957e+01,2.860395326745276412e-01,-4.470833163942409261e-01,-9.679502977708619171e-02,4.178921471975592938e-01
2.103200000000000003e+01,2.707874709442442684e-01,-4.602386323778651644e-01,-9.086302061358347837e-02,4.104226961467379309e-01
2.104400000000000048e+01,2.548137385876275696e-01,-4.728044522388636928e-01,-8.526335223692052545e-02,4.026703303007801993e-01
2.105600000000000094e+01,2.381363204805495570e-01,-4.847332962691403568e-01,-8.001623700279290874e-02,3.946467311471327788e-01
2.106800000000000139e+01,2.207764452011486689e-01,-4.959770264891447122e-01,-7.514199903520323021e-02,3.863651428914800512e-01
2.107999999999999829e+01,2.027588347110869937e-01,-5.064869942222649524e-01,-7.066098185316270486e-02,3.778404767696633137e-01
2.109199999999999875e+01,1.841119593363603202e-01,-5.162142248346455187e-01,-6.659344043874186603e-02,3.690894153301191305e-01
2.110399999999999920e+01,1.648682954410449208e-01,-5.251096410267792614e-01,-6.295941671661545169e-02,3.601305156769304960e-01
2.111599999999999966e+01,1.450645831459165813e-01,-5.331243266572391892e-01,-5.977859726246136096e-02,3.509843104670727354e-01
2.112800000000000011e+01,1.247420811666565821e-01,-5.402098335964719000e-01,-5.707015193026786920e-02,3.416734052119131948e-01
2.114000000000000057e+01,1.039468153785071958e-01,-5.463185345501393453e-01,-5.485255198524129072e-02,3.322225701405380760e-01
2.115200000000000102e+01,8.272981707717877442e-02,-5.514040251573931739e-01,-5.314336625147044607e-02,3.226588245363675167e-01
2.116400000000000148e+01,6.114734610433265188e-02,-5.554215789569428852e-01,-5.195903373694583938e-02,3.130115110519685606e-01
2.117599999999999838e+01,3.926109303310747201e-02,-5.583286590116219861e-01,-5.131461119195152021e-02,3.033123570315903739e-01
2.118799999999999883e+01,1.713835345058285428e-02,-5.600854900702749717e-01,-5.122349410371465628e-02,2.935955193175521782e-01
2.119999999999999929e+01,-5.147833989177114447e-03,-5.606556950915310145e-01,-5.169710974931588515e-02,2.838976083760367253e-01
2.121199999999999974e+01,-2.751859565667913801e-02,-5.600069997109289321e-01,-5.274458114531944269e-02,2.742576868414167146e-01
2.122400000000000020e+01,-4.988918893078077982e-02,-5.581120077371199972e-01,-5.437236107918881622e-02,2.647172367403746729e-01
2.123600000000000065e+01,-7.216903991150749875e-02,-5.549490499310657521e-01,-5.658383592559006886e-02,2.553200887158588173e-01
2.124800000000000111e+01,-9.426186904413658141e-02,-5.505031070479498023e-01,-5.937889969170137561e-02,2.461123055324135611e-01
2.126000000000000156e+01,-1.160659234183652883e-01,-5.447668062732315963e-01,-6.275349976153138387e-02,2.371420110256066138e-01
2.127199999999999847e+01,-1.374743372727322832e-01,-5.377414876037572844e-01,-6.669915719291748257e-02,2.284591544926038442e-01
2.128399999999999892e+01,-1.583756450894233392e-01,-5.294383332280822030e-01,-7.120246624457549078e-02,2.201151993646708327e-01
2.129599999999999937e+01,-1.786544744499735382e-01,-5.198795483423525043e-01,-7.624458016312005149e-02,2.121627239424996314e-01
2.130799999999999983e+01,-1.981924482983413727e-01,-5.090995758834042650e-01,-8.180069323039806939e-02,2.046549211382324152e-01
2.132000000000000028e+01,-2.168693280786478383e-01,-4.971463201623023687e-01,-8.783953273875273748e-02,1.976449837302401147e-01
2.133200000000000074e+01,-2.345644299083111117e-01,-4.840823451703278324e-01,-9.432287897942712163e-02,1.911853618323944570e-01
2.134400000000000119e+01,-2.511583448925275297e-01,-4.699860023208161097e-01,-1.012051365022508947e-01,1.853268804090146549e-01
2.135600000000000165e+01,-2.665349911048717213e-01,-4.549524296458811734e-01,-1.084329857594158175e-01,1.801177070965176985e-01
2.136799999999999855e+01,-2.805840177224450671e-01,-4.390943502774501406e-01,-1.159451505915532615e-01,1.756021647483808068e-01
2.137999999999999901e+01,-2.932035702708336578e-01,-4.225425830263148663e-01,-1.236723234968325896e-01,1.718193894616443229e-01
2.139199999999999946e+01,-3.043034088313927299e-01,-4.054461630900068059e-01,-1.315372966788266595e-01,1.688018438210405481e-01
2.140399999999999991e+01,-3.138083474299132591e-01,-3.879719579755573355e-01,-1.394553516783855196e-01,1.665737070771859674e-01
2.141600000000000037e+01,-3.216619520267094967e-01,-3.703036548476613121e-01,-1.473349628614986917e-01,1.651491791338186021e-01
2.142800000000000082e+01,-3.278303965518330476e-01,-3.526399935716413858e-01,-1.550788687954588185e-01,1.645307533995985505e-01
2.144000000000000128e+01,-3.323063322473591152e-01,-3.351921281072847703e-01,-1.625855590399004347e-01,1.647075341087244627e-01
2.145199999999999818e+01,-3.351125775401658236e-01,-3.181800212624084634e-01,-1.697512105086733669e-01,1.656536953092654085e-01
2.146399999999999864e+01,-3.363053878430565802e-01,-3.018278175100226335e-01,-1.764720859450916168e-01,1.673271992323646651e-01
2.147599999999999909e+01,-3.359770230421710302e-01,-2.863581979712271353e-01,-1.826473764081981144e-01,1.696689082143675031e-01
2.148799999999999955e+01,-3.342573027161672705e-01,-2.719858011483428650e-01,-1.881824302433287022e-01,1.726022330410798555e-01
2.150000000000000000e+01,-3.313138342511068313e-01,-2.589098899123806752e-01,-1.929922645639473300e-01,1.760334574277644948e-01
2.151200000000000045e+01,-3.273506258332378183e-01,-2.473065530266347067e-01,-1.970052054308052691e-01,1.798528594836278083e-01
2.152400000000000091e+01,-3.226048618703202808e-01,-2.373208371900909219e-01,-2.001664552790387019e-01,1.839367136857412433e-01
2.153600000000000136e+01,-3.173417257621424237e-01,-2.290592983421380902e-01,-2.024413479669125715e-01,1.881502004764941671e-01
2.154800000000000182e+01,-3.118473010135484613e-01,-2.225835215436772208e-01,-2.038180311456195548e-01,1.923511775332220619e-01
2.155999999999999872e+01,-3.064197557183619414e-01,-2.179051702926822209e-01,-2.043093199142082539e-01,1.963946830906697361e-01
2.157199999999999918e+01,-3.013591989291721229e-01,-2.149830758520611118e-01,-2.039535000048481317e-01,2.001379569600557351e-01
2.158399999999999963e+01,-2.969567658536425570e-01,-2.137227601423456469e-01,-2.028139240369006280e-01,2.034456910469562285e-01
2.159600000000000009e+01,-2.934836154303770428e-01,-2.139786078388856705e-01,-2.009773364146503205e-01,2.061951706671528717e-01
2.160800000000000054e+01,-2.911805848541845765e-01,-2.155586820533795245e-01,-1.985509715412097920e-01,2.082809511824112725e-01
2.162000000000000099e+01,-2.902492257082348037e-01,-2.182319407665763988e-01,-1.956585822551583087e-01,2.096187372432090079e-01
2.163200000000000145e+01,-2.908448428552260490e-01,-2.217373907223730567e-01,-1.924356549941903527e-01,2.101481937081179363e-01
2.164399999999999835e+01,-2.930719817289820783e-01,-2.257945434870891888e-01,-1.890241406406946156e-01,2.098345108311532592e-01
2.165599999999999881e+01,-2.969825862437840414e-01,-2.301144389896619680e-01,-1.855670650754854267e-01,2.086686587230987822e-01
2.166799999999999926e+01,-3.025768100369066183e-01,-2.344104868342886949e-01,-1.822033772883714375e-01,2.066663815284032757e-01
2.167999999999999972e+01,-3.098062412586028991e-01,-2.384084423969999311e-01,-1.790633485384940660e-01,2.038660845317838421e-01
2.169200000000000017e+01,-3.185791234882808243e-01,-2.418549676243307855e-01,-1.762647625022824294e-01,2.003258450348402442e-01
2.170400000000000063e+01,-3.287670404994362805e-01,-2.445244012321704241e-01,-1.739100462207183451e-01,1.961198230823101851e-01
2.171600000000000108e+01,-3.402124864677580907e-01,-2.462235521611368938e-01,-1.720843984591007014e-01,1.913343596346945286e-01
2.172800000000000153e+01,-3.527367606131093791e-01,-2.467945084031356873e-01,-1.708548876480707190e-01,1.860640314664328832e-01
2.173999999999999844e+01,-3.661476927745617171e-01,-2.461156015752775095e-01,-1.702704242978373139e-01,1.804078914006050083e-01
2.175199999999999889e+01,-3.802468063711977875e-01,-2.441007748801431176e-01,-1.703624669664658975e-01,1.744660685523753696e-01
2.176399999999999935e+01,-3.948356395216319759e-01,-2.406976653646358544e-01,-1.711462969504146114e-01,1.683368448810341200e-01
2.177599999999999980e+01,-4.097210582260004119e-01,-2.358847341494305916e-01,-1.726226923196646779e-01,1.621142688148504152e-01
2.178800000000000026e+01,-4.247194960894492555e-01,-2.296677682206604287e-01,-1.747798424261164107e-01,1.558863190414658539e-01
2.180000000000000071e+01,-4.396601363654972783e-01,-2.220760440057987228e-01,-1.775953646133254238e-01,1.497335944423941745e-01
2.181200000000000117e+01,-4.543871115867633148e-01,-2.131583958199921580e-01,-1.810383108346467207e-01,1.437284802777940018e-01
2.182400000000000162e+01,-4.687608344070198774e-01,-2.029793795867151640e-01,-1.850710793367524309e-01,1.379347253113465954e-01
2.183599999999999852e+01,-4.826585932554815495e-01,-1.916156702814416635e-01,-1.896511726279722920e-01,1.324073579304592130e-01
2.184799999999999898e+01,-4.959745517888336508e-01,-1.791527845190563351e-01,-1.947327658218398760e-01,1.271928694088991230e-01
2.185999999999999943e+01,-5.086192859283625856e-01,-1.656821799432724729e-01,-2.002680682285909453e-01,1.223295972194514553e-01
