Frequency, Re(SMin1Min1), Im(SMin1Min1), Re(SMax1Min1), Im(SMax1Min1)
2.000000000000000000e+01,-2.521253604099251699e-01,-6.059351612858651093e-01,-1.777108189580004216e-01,2.488103574809546071e-03
2.001200000000000045e+01,-2.657710283898547798e-01,-5.964973822606969289e-01,-1.835036394930955606e-01,-9.732968319017356630e-04
2.002400000000000091e+01,-2.791613362650790520e-01,-5.865943424130287687e-01,-1.894536656975236433e-01,-4.243757492417842524e-03
2.003600000000000136e+01,-2.922761535331130922e-01,-5.762322108525899100e-01,-1.955548540266625890e-01,-7.316343204469468592e-03
2.004799999999999827e+01,-3.050954463544598982e-01,-5.654181198979136846e-01,-2.018008495983094064e-01,-1.018431066379085932e-02
2.005999999999999872e+01,-3.175993287896963779e-01,-5.541601660350432557e-01,-2.081849931569224599e-01,-1.284112244279346678e-02
2.007199999999999918e+01,-3.297681141481926259e-01,-5.424674076172205650e-01,-2.147003287016868711e-01,-1.528046059070054669e-02
2.008399999999999963e+01,-3.415823661887739116e-01,-5.303498593050867127e-01,-2.213396117480843361e-01,-1.749623981690159868e-02
2.009600000000000009e+01,-3.530229499126018022e-01,-5.178184832718712993e-01,-2.280953181896765991e-01,-1.948262022192934206e-02
2.010800000000000054e+01,-3.640710816913800274e-01,-5.048851772229132617e-01,-2.349596537241764593e-01,-2.123401954343077241e-02
2.012000000000000099e+01,-3.747083784793703298e-01,-4.915627593034901932e-01,-2.419245638054080827e-01,-2.274512488767273938e-02
2.013200000000000145e+01,-3.849169058657621045e-01,-4.778649499930965328e-01,-2.489817440806289528e-01,-2.401090392054367958e-02
2.014399999999999835e+01,-3.946792247345327631e-01,-4.638063511075398715e-01,-2.561226512707989733e-01,-2.502661549560369209e-02
2.015599999999999881e+01,-4.039784363121167732e-01,-4.494024220523287760e-01,-2.633385144498527897e-01,-2.578781970053265274e-02
2.016799999999999926e+01,-4.127982253985343908e-01,-4.346694534916458186e-01,-2.706203466777621913e-01,-2.629038730722086520e-02
2.017999999999999972e+01,-4.211229015954044419e-01,-4.196245386160042945e-01,-2.779589569413609684e-01,-2.653050861483572526e-02
2.019200000000000017e+01,-4.289374383637645227e-01,-4.042855422090405049e-01,-2.853449623563049653e-01,-2.650470167928896392e-02
2.020400000000000063e+01,-4.362275097660939238e-01,-3.886710677286378535e-01,-2.927688005834065965e-01,-2.620981992675742306e-02
2.021600000000000108e+01,-4.429795247697708716e-01,-3.728004226303772706e-01,-3.002207424127693036e-01,-2.564305915313401171e-02
2.022800000000000153e+01,-4.491806590133951560e-01,-3.566935821713868027e-01,-3.076909044696994888e-01,-2.480196391551692595e-02
2.023999999999999844e+01,-4.548188839624914825e-01,-3.403711519403302965e-01,-3.151692619973356924e-01,-2.368443332606146035e-02
2.025199999999999889e+01,-4.598829934069572078e-01,-3.238543293640522847e-01,-3.226456616722149229e-01,-2.228872626266913820e-02
2.026399999999999935e+01,-4.643626272787576559e-01,-3.071648644438112474e-01,-3.301098344106536131e-01,-2.061346601507413681e-02
2.027599999999999980e+01,-4.682482927947558271e-01,-2.903250199732063108e-01,-3.375514081259166632e-01,-1.865764438883121129e-02
2.028800000000000026e+01,-4.715313829555889957e-01,-2.733575314868825212e-01,-3.449599203984652362e-01,-1.642062529356184269e-02
2.030000000000000071e+01,-4.742041924572168443e-01,-2.562855671830170934e-01,-3.523248310243530246e-01,-1.390214784545705518e-02
2.031200000000000117e+01,-4.762599310966519339e-01,-2.391326880541411182e-01,-3.596355344099020912e-01,-1.110232901753003751e-02
2.032400000000000162e+01,-4.776927347773330945e-01,-2.219228084498411357e-01,-3.668813717842008271e-01,-8.021665874370328617e-03
2.033599999999999852e+01,-4.784976742423431295e-01,-2.046801572815346859e-01,-3.740516432046720463e-01,-4.661037431189908251e-03
2.034799999999999898e+01,-4.786707616849996683e-01,-1.874292400639541445e-01,-3.811356193350164401e-01,-1.021706179721626083e-03
2.035999999999999943e+01,-4.782089554060603986e-01,-1.701948019704897508e-01,-3.881225529790972573e-01,2.894680673945151592e-03
2.037199999999999989e+01,-4.771101627047875660e-01,-1.530017920599356929e-01,-3.950016903590185535e-01,7.086090212335983615e-03
2.038400000000000034e+01,-4.753732412071764446e-01,-1.358753288112470869e-01,-4.017622821304386860e-01,1.155010300119054673e-02
2.039600000000000080e+01,-4.729979988487560960e-01,-1.188406670802188703e-01,-4.083935941333430297e-01,1.628391242497572930e-02
2.040800000000000125e+01,-4.699851927413581376e-01,-1.019231665681273463e-01,-4.148849178818458938e-01,2.128432411139776631e-02
2.042000000000000171e+01,-4.663365271631013109e-01,-8.514826186736383640e-02,-4.212255808022193904e-01,2.654775539217256453e-02
2.043199999999999861e+01,-4.620546509184552675e-01,-6.854143412314681050e-02,-4.274049562341650232e-01,3.207023474689408432e-02
2.044399999999999906e+01,-4.571431543206829207e-01,-5.212818432361905618e-02,-4.334124732164120752e-01,3.784740117683733918e-02
2.045599999999999952e+01,-4.516065660520764413e-01,-3.593400820343461977e-02,-4.392376260839246371e-01,4.387450345594640783e-02
2.046799999999999997e+01,-4.454503501582912639e-01,-1.998437271791373565e-02,-4.448699839105175191e-01,5.014639920720810606e-02
2.048000000000000043e+01,-4.386809034317068479e-01,-4.304694016870261666e-03,-4.502991998372241622e-01,5.665755375397086430e-02
2.049200000000000088e+01,-4.313055534350635489e-01,1.107968318125248167e-02,-4.555150203335887604e-01,6.340203869771514344e-02
2.050400000000000134e+01,-4.233325574107217881e-01,2.614350494283198406e-02,-4.605072944459905337e-01,7.037353017628342200e-02
2.051599999999999824e+01,-4.147711023126207097e-01,4.086162635653373121e-02,-4.652659830941885399e-01,7.756530675965617183e-02
2.052799999999999869e+01,-4.056313061875446158e-01,5.520902883977521491e-02,-4.697811684844798719e-01,8.497024694410811041e-02
2.053999999999999915e+01,-3.959242211194208827e-01,6.916083672751706379e-02,-4.740430637151721305e-01,9.258082620998951684e-02
2.055199999999999960e+01,-3.856618379350623127e-01,8.269233338510587061e-02,-4.780420226574664810e-01,1.003891136135925122e-01
2.056400000000000006e+01,-3.748570928521445245e-01,9.577897711474682441e-02,-4.817685502022566735e-01,1.083867678894837872e-01
2.057600000000000051e+01,-3.635238762298267923e-01,1.083964171530169274e-01,-4.852133129708071646e-01,1.165650330465690110e-01
2.058800000000000097e+01,-3.516770435595151789e-01,1.205205100840980037e-01,-4.883671505946546310e-01,1.249147334489040390e-01
2.060000000000000142e+01,-3.393324288074424655e-01,1.321273370203368824e-01,-4.912210876773853707e-01,1.334262683810700789e-01
2.061199999999999832e+01,-3.265068601919552949e-01,1.431932219279371254e-01,-4.937663465580879874e-01,1.420896061077863703e-01
2.062399999999999878e+01,-3.132181784462903518e-01,1.536947515012223875e-01,-4.959943610031541938e-01,1.508942774485033389e-01
2.063599999999999923e+01,-2.994852575823381824e-01,1.636087970133828506e-01,-4.978967909596568320e-01,1.598293688999682383e-01
2.064799999999999969e+01,-2.853280281314720668e-01,1.729125385952501037e-01,-4.994655385096158362e-01,1.688835153534886113e-01
2.066000000000000014e+01,-2.707675027956150116e-01,1.815834924154656194e-01,-5.006927651699428772e-01,1.780448924686172663e-01
2.067200000000000060e+01,-2.558258043941609161e-01,1.895995412556705506e-01,-5.015709106875599899e-01,1.873012087816521565e-01
2.068400000000000105e+01,-2.405261959404841887e-01,1.969389689922345088e-01,-5.020927134829749061e-01,1.966396976455301593e-01
2.069600000000000151e+01,-2.248931126249431867e-01,2.035804995111382687e-01,-5.022512328981532104e-01,2.060471091175999636e-01
2.070799999999999841e+01,-2.089521954193782061e-01,2.095033405942847426e-01,-5.020398734057339718e-01,2.155097019333869490e-01
2.071999999999999886e+01,-1.927303259507656408e-01,2.146872333230708807e-01,-5.014524109360741777e-01,2.250132357279118200e-01
2.073199999999999932e+01,-1.762556622190245281e-01,2.191125075474107120e-01,-5.004830214760608298e-01,2.345429636912785554e-01
2.074399999999999977e+01,-1.595576746552734848e-01,2.227601439649479209e-01,-4.991263120886956783e-01,2.440836258723743935e-01
2.075600000000000023e+01,-1.426671819328582669e-01,2.256118433443873583e-01,-4.973773544947311387e-01,2.536194433731846498e-01
2.076800000000000068e+01,-1.256163858536760158e-01,2.276501034077877406e-01,-4.952317213467199997e-01,2.631341137066848801e-01
2.078000000000000114e+01,-1.084389045373346655e-01,2.288583038577420570e-01,-4.926855253112336075e-01,2.726108076231502086e-01
2.079200000000000159e+01,-9.116980304089014608e-02,2.292207999951446640e-01,-4.897354610562236199e-01,2.820321677428667129e-01
2.080399999999999849e+01,-7.384562043303861956e-02,2.287230253200968344e-01,-4.863788502170003913e-01,2.913803093673280609e-01
2.081599999999999895e+01,-5.650439223962631236e-02,2.273516034407177810e-01,-4.826136893855353938e-01,3.006368238756514377e-01
2.082799999999999940e+01,-3.918566706877832373e-02,2.250944695304313847e-01,-4.784387011332337236e-01,3.097827851475434269e-01
2.083999999999999986e+01,-2.193051611503957915e-02,2.219410014718914692e-01,-4.738533880363158257e-01,3.187987594882843445e-01
2.085200000000000031e+01,-4.781534135522807864e-03,2.178821607033703533e-01,-4.688580896251021701e-01,3.276648195637343886e-01
2.086400000000000077e+01,1.221716961090355165e-02,2.129106426394723750e-01,-4.634540421231763130e-01,3.363605628837313954e-01
2.087600000000000122e+01,2.901999206431728207e-02,2.070210363710451029e-01,-4.576434407792834280e-01,3.448651353991094015e-01
2.088800000000000168e+01,4.557987038977698302e-02,2.002099931579203462e-01,-4.514295045235383608e-01,3.531572607997671698e-01
2.089999999999999858e+01,6.184833108092397530e-02,1.924764030119355818e-01,-4.448165425999124900e-01,3.612152761172819360e-01
2.091199999999999903e+01,7.777555593983748183e-02,1.838215784262301478e-01,-4.378100227389888355e-01,3.690171742439199432e-01
2.092399999999999949e+01,9.331046675241982946e-02,1.742494440407504619e-01,-4.304166403389692586e-01,3.765406539786800288e-01
2.093599999999999994e+01,1.084008304681784579e-01,1.637667307442002562e-01,-4.226443880191645963e-01,3.837631781984935930e-01
2.094800000000000040e+01,1.229933866450562963e-01,1.523831724020800749e-01,-4.145026247998221391e-01,3.906620407265750106e-01
2.096000000000000085e+01,1.370339988284135779e-01,1.401117030721289458e-01,-4.060021440460919173e-01,3.972144424283359232e-01
2.097200000000000131e+01,1.504678313916315013e-01,1.269686522273598406e-01,-3.971552391940457172e-01,4.033975770059418098e-01
2.098400000000000176e+01,1.632395531681900547e-01,1.129739351593814084e-01,-3.879757661549935177e-01,4.091887268834659697e-01
2.099599999999999866e+01,1.752935689458114954e-01,9.815123538850938079e-02,-3.784792011736002326e-01,4.145653694737708728e-01
2.100799999999999912e+01,1.865742795677166610e-01,8.252817557203206977e-02,-3.686826927987033042e-01,4.195052939940013825e-01
2.101999999999999957e+01,1.970263709904309934e-01,6.613647308900931499e-02,-3.586051065171518282e-01,4.239867288475639429e-01
2.103200000000000003e+01,2.065951321804259944e-01,4.901207620181633612e-02,-3.482670605045843359e-01,4.279884794159898864e-01
2.104400000000000048e+01,2.152268011928856195e-01,3.119527646571875965e-02,-3.376909508680375205e-01,4.314900759038235445e-01
2.105600000000000094e+01,2.228689381683309212e-01,1.273079289305641820e-02,-3.269009646986328899e-01,4.344719306544760351e-01
2.106800000000000139e+01,2.294708233121366681e-01,-6.332176705783531569e-03,-3.159230792241888852e-01,4.369155041064012868e-01
2.107999999999999829e+01,2.349838771974748497e-01,-2.593994177043355137e-02,-3.047850453571807616e-01,4.388034782897937136e-01
2.109199999999999875e+01,2.393620999667199212e-01,-4.603434686962985106e-02,-2.935163539788032128e-01,4.401199364783233703e-01
2.110399999999999920e+01,2.425625252164869128e-01,-6.655284560318869280e-02,-2.821481833905964964e-01,4.408505473136158925e-01
2.111599999999999966e+01,2.445456835579573052e-01,-8.742862433088034735e-02,-2.707133265057989346e-01,4.409827514190804432e-01
2.112800000000000011e+01,2.452760700709385455e-01,-1.085907789971958110e-01,-2.592460965477114687e-01,4.405059482224751299e-01
2.114000000000000057e+01,2.447226091448300722e-01,-1.299645476349931272e-01,-2.477822102742052168e-01,4.394116804228598294e-01
2.115200000000000102e+01,2.428591095520528098e-01,-1.514716002943300166e-01,-2.363586480574255688e-01,4.376938132779844559e-01
2.116400000000000148e+01,2.396647020609352641e-01,-1.730303871622345113e-01,-2.250134905147080089e-01,4.353487056642778019e-01
2.117599999999999838e+01,2.351242514972801956e-01,-1.945565445282532724e-01,-2.137857318075344626e-01,4.323753696855501816e-01
2.118799999999999883e+01,2.292287349369173666e-01,-2.159633570298341021e-01,-2.027150701941786981e-01,4.287756154904054373e-01
2.119999999999999929e+01,2.219755776834307082e-01,-2.371622733085419210e-01,-1.918416769300758384e-01,4.245541779138827798e-01
2.121199999999999974e+01,2.133689388781321583e-01,-2.580634708577327907e-01,-1.812059451463837456e-01,4.197188215964249847e-01
2.122400000000000020e+01,2.034199390203457747e-01,-2.785764644844433424e-01,-1.708482208880282016e-01,4.142804213617147790e-01
2.123600000000000065e+01,1.921468223528777497e-01,-2.986107514891863102e-01,-1.608085190410828702e-01,4.082530148603447095e-01
2.124800000000000111e+01,1.795750479897911811e-01,-3.180764854344529935e-01,-1.511262274075232115e-01,4.016538248118800558e-01
2.126000000000000156e+01,1.657373048197607057e-01,-3.368851692764626149e-01,-1.418398026735870343e-01,3.945032486029671492e-01
2.127199999999999847e+01,1.506734465862554218e-01,-3.549503577221391204e-01,-1.329864624460831701e-01,3.868248135191130199e-01
2.128399999999999892e+01,1.344303450930481869e-01,-3.721883579891252514e-01,-1.246018778793609866e-01,3.786450964935160757e-01
2.129599999999999937e+01,1.170616611676544572e-01,-3.885189177279993467e-01,-1.167198716661224239e-01,3.699936079345876871e-01
2.130799999999999983e+01,9.862753478488775483e-02,-4.038658887419850907e-01,-1.093721263018757051e-01,3.609026399267739049e-01
2.132000000000000028e+01,7.919419755130732708e-02,-4.181578553275022148e-01,-1.025879075436698373e-01,3.514070798663539996e-01
2.133200000000000074e+01,5.883351251709634244e-02,-4.313287165648980181e-01,-9.639380786043041938e-02,3.415441913703994303e-01
2.134400000000000119e+01,3.762244795327888969e-02,-4.433182127050839805e-01,-9.081351441220687770e-02,3.313533650578213696e-01
2.135600000000000165e+01,1.564249325006401500e-02,-4.540723869033888582e-01,-8.586760570135680559e-02,3.208758425193807273e-01
2.136799999999999855e+01,-7.020973599329216261e-03,-4.635439749133730136e-01,-8.157338051843757154e-02,3.101544174430214684e-01
2.137999999999999901e+01,-3.027935640982348450e-02,-4.716927169271589726e-01,-7.794472217304700135e-02,2.992331184176810766e-01
2.139199999999999946e+01,-5.404153782710357373e-02,-4.784855874805213904e-01,-7.499200027385098666e-02,2.881568783820979140e-01
2.140399999999999991e+01,-7.821459122752687232e-02,-4.838969411728644143e-01,-7.272201152527461854e-02,2.769711959981893123e-01
2.141600000000000037e+01,-1.027044956340516374e-01,-4.879085738209521517e-01,-7.113796016686579904e-02,2.657217944001396548e-01
2.142800000000000082e+01,-1.274168419810716157e-01,-4.905097005090137130e-01,-7.023947782295543452e-02,2.544542827944045738e-01
2.144000000000000128e+01,-1.522575195591026609e-01,-4.916968537584457954e-01,-7.002268168290716466e-02,2.432138262627925873e-01
2.145199999999999818e+01,-1.771333722452055337e-01,-4.914737066640052499e-01,-7.048026912351949835e-02,2.320448288566558104e-01
2.146399999999999864e+01,-2.019528151398192195e-01,-4.898508272864361968e-01,-7.160164613960899593e-02,2.209906346766916663e-01
2.147599999999999909e+01,-2.266264034397893479e-01,-4.868453718198967883e-01,-7.337308628812469480e-02,2.100932511260492352e-01
2.148799999999999955e+01,-2.510673467338411236e-01,-4.824807250431912831e-01,-7.577791629226710013e-02,1.993930979243051238e-01
2.150000000000000000e+01,-2.751919633580875990e-01,-4.767860973054962037e-01,-7.879672400725525050e-02,1.889287847989464530e-01
2.151200000000000045e+01,-2.989200709479403195e-01,-4.697960877909139743e-01,-8.240758412503072783e-02,1.787369200526504331e-01
2.152400000000000091e+01,-3.221753108224130191e-01,-4.615502240618092333e-01,-8.658629679293369796e-02,1.688519514626392048e-01
2.153600000000000136e+01,-3.448854052985299012e-01,-4.520924879188910617e-01,-9.130663423751296526e-02,1.593060402246214702e-01
2.154800000000000182e+01,-3.669823484249822854e-01,-4.414708374634859211e-01,-9.654059051092081511e-02,1.501289679283018819e-01
2.155999999999999872e+01,-3.884025319235572260e-01,-4.297367349374804912e-01,-1.022586296020875779e-01,1.413480758601496634e-01
2.157199999999999918e+01,-4.090868093215727641e-01,-4.169446894836456585e-01,-1.084299273636015470e-01,1.329882352845718763e-01
2.158399999999999963e+01,-4.289805023464171585e-01,-4.031518234513791210e-01,-1.150226029816576317e-01,1.250718467641813436e-01
2.159600000000000009e+01,-4.480333546462811345e-01,-3.884174703040637056e-01,-1.220039360440965531e-01,1.176188660461750524e-01
2.160800000000000054e+01,-4.661994388171613601e-01,-3.728028115959308164e-01,-1.293405656243784008e-01,1.106468535625430155e-01
2.162000000000000099e+01,-4.834370235902556989e-01,-3.563705599026953941e-01,-1.369986681833515463e-01,1.041710441594170949e-01
2.163200000000000145e+01,-4.997084089081540448e-01,-3.391846940255757170e-01,-1.449441114849299994e-01,9.820443327306035974e-02
2.164399999999999835e+01,-5.149797375470079874e-01,-3.213102522451485865e-01,-1.531425821200262383e-01,9.275787539010658944e-02
2.165599999999999881e+01,-5.292207929901553420e-01,-3.028131888635570146e-01,-1.615596846348913707e-01,8.784019024700430445e-02
2.166799999999999926e+01,-5.424047944990109116e-01,-2.837602987024212542e-01,-1.701610106726461347e-01,8.345827181416332063e-02
2.167999999999999972e+01,-5.545082018405954605e-01,-2.642192135508532047e-01,-1.789121769777415050e-01,7.961719464791332246e-02
2.169200000000000017e+01,-5.655105439977338166e-01,-2.442584736749843222e-01,-1.877788316114555323e-01,7.632031165138469797e-02
2.170400000000000063e+01,-5.753942884844294170e-01,-2.239476762482278671e-01,-1.967266283276212502e-01,7.356933663882457564e-02
2.171600000000000108e+01,-5.841447706690494623e-01,-2.033577007167229611e-01,-2.057211698252141563e-01,7.136440432784912913e-02
2.172800000000000153e+01,-5.917502057836355744e-01,-1.825610083730910549e-01,-2.147279216152351566e-01,6.970409948355150986e-02
2.173999999999999844e+01,-5.982018100016609496e-01,-1.616320093770541311e-01,-2.237120996272669859e-01,6.858544592137730267e-02
2.175199999999999889e+01,-6.034940609003461853e-01,-1.406474846335660223e-01,-2.326385365797227767e-01,6.800384499087516743e-02
2.176399999999999935e+01,-6.076251313818131772e-01,-1.196870417227273303e-01,-2.414715347204735851e-01,6.795295211247692757e-02
2.177599999999999980e+01,-6.105975339964893056e-01,-9.883357281231432145e-02,-2.501747160086547628e-01,6.842447910709316405e-02
2.178800000000000026e+01,-6.124190134443027178e-01,-7.817366753953138014e-02,-2.587108853579104806e-01,6.940790974055220663e-02
2.180000000000000071e+01,-6.131037221024240313e-01,-5.779791477718809051e-02,-2.670419283727231141e-01,7.089011655352410457e-02
2.181200000000000117e+01,-6.126737043248631220e-01,-3.780100403182924673e-02,-2.751287721676708986e-01,7.285486931162196700e-02
2.182400000000000162e+01,-6.111606968256122485e-01,-1.828151090743729626e-02,-2.829314462554050613e-01,7.528223016936451406e-02
2.183599999999999852e+01,-6.086082209598764337e-01,6.587758970851083536e-04,-2.904092896646692790e-01,7.814783900705669917e-02
2.184799999999999898e+01,-6.050738943604996312e-01,1.891615140262382228e-02,-2.975213593864548534e-01,8.142210564888856250e-02
2.185999999999999943e+01,-6.006318214041227455e-01,3.638709111617249164e-02,-3.042271021108136630e-01,8.506934505732373364e-02
