Frequency, Re(SMin1Min1), Im(SMin1Min1), Re(SMax1Min1), Im(SMax1Min1)
2.000000000000000000e+01,-1.075918581101929956e-02,3.453375422290693164e-01,-6.033144346387477874e-01,2.795438005249286650e-01
2.001200000000000045e+01,2.841808160811436570e-03,3.464387106957613205e-01,-6.006947092821709466e-01,2.873005186837838121e-01
2.002400000000000091e+01,1.643139052093466751e-02,3.471317292681798117e-01,-5.978969117145886969e-01,2.949822104621074303e-01
2.003600000000000136e+01,2.999922519329404832e-02,3.474184011684449125e-01,-5.949234666922122994e-01,3.025850739918334309e-01
2.004799999999999827e+01,4.353513226070385850e-02,3.473007043522559067e-01,-5.917768304892430109e-01,3.101054021854138254e-01
2.005999999999999872e+01,5.702908481090859794e-02,3.467807799797793522e-01,-5.884594863300033341e-01,3.175395789866670704e-01
2.007199999999999918e+01,7.047120509924148513e-02,3.458609214504284046e-01,-5.849739401750873036e-01,3.248840754100723038e-01
2.008399999999999963e+01,8.385176006867900433e-02,3.445435640267534572e-01,-5.813227168657739696e-01,3.321354453893833880e-01
2.009600000000000009e+01,9.716115626739152411e-02,3.428312750702838252e-01,-5.775083566300964755e-01,3.392903214556294289e-01
2.010800000000000054e+01,1.103899342031171571e-01,3.407267449100261913e-01,-5.735334119531506625e-01,3.463454102638586218e-01
2.012000000000000099e+01,1.235287621728513863e-01,3.382327783624635709e-01,-5.694004448135747687e-01,3.532974879873100327e-01
2.013200000000000145e+01,1.365684296053605307e-01,3.353522869202176793e-01,-5.651120242876176425e-01,3.601433955968751932e-01
2.014399999999999835e+01,1.494998399531205779e-01,3.320882816251233827e-01,-5.606707245217334989e-01,3.668800340430108942e-01
2.015599999999999881e+01,1.623140031692522911e-01,3.284438666403062812e-01,-5.560791230744234204e-01,3.735043593566472753e-01
2.016799999999999926e+01,1.750020278040159138e-01,3.244222335348437847e-01,-5.513397996277580315e-01,3.800133776848222400e-01
2.017999999999999972e+01,1.875551127545616037e-01,3.200266562939056425e-01,-5.464553350689237421e-01,3.864041402763011557e-01
2.019200000000000017e+01,1.999645387005927200e-01,3.152604870667370385e-01,-5.414283109422083351e-01,3.926737384317845470e-01
2.020400000000000063e+01,2.122216592578610450e-01,3.101271526645162924e-01,-5.362613092718226948e-01,3.988192984327819102e-01
2.021600000000000108e+01,2.243178918805787958e-01,3.046301518200775771e-01,-5.309569127562042690e-01,4.048379764628753930e-01
2.022800000000000153e+01,2.362447085431964577e-01,2.987730532215343571e-01,-5.255177053346801186e-01,4.107269535345974276e-01
2.023999999999999844e+01,2.479936262314796080e-01,2.925594943321529473e-01,-5.199462731276986993e-01,4.164834304349835370e-01
2.025199999999999889e+01,2.595561972723902655e-01,2.859931810092863902e-01,-5.142452057522519659e-01,4.221046227025628261e-01
2.026399999999999935e+01,2.709239995320352201e-01,2.790778879358561393e-01,-5.084170980145451546e-01,4.275877556484692921e-01
2.027599999999999980e+01,2.820886265109402991e-01,2.718174598785845775e-01,-5.024645519825633455e-01,4.329300594343951092e-01
2.028800000000000026e+01,2.930416773659878515e-01,2.642158137882527624e-01,-4.963901794416789026e-01,4.381287642201528998e-01
2.030000000000000071e+01,3.037747468887223024e-01,2.562769417582627107e-01,-4.901966047371106860e-01,4.431810953938551401e-01
2.031200000000000117e+01,3.142794154703221210e-01,2.480049148590680319e-01,-4.838864680077264446e-01,4.480842688980755661e-01
2.032400000000000162e+01,3.245472390843731070e-01,2.394038878673703519e-01,-4.774624288163273333e-01,4.528354866658419464e-01
2.033599999999999852e+01,3.345697393196686575e-01,2.304781049104266677e-01,-4.709271701822987377e-01,4.574319321808606453e-01
2.034799999999999898e+01,3.443383934967139126e-01,2.212319060473638965e-01,-4.642834030232447229e-01,4.618707661772556428e-01
2.035999999999999943e+01,3.538446249032592417e-01,2.116697348110703758e-01,-4.575338710129812081e-01,4.661491224948898227e-01
2.037199999999999989e+01,3.630797931863564143e-01,2.017961467358342365e-01,-4.506813558639682360e-01,4.702641041075443229e-01
2.038400000000000034e+01,3.720351849407760314e-01,1.916158188977138410e-01,-4.437286830430329232e-01,4.742127793424074644e-01
2.039600000000000080e+01,3.807020045365009930e-01,1.811335604963487667e-01,-4.366787279299449986e-01,4.779921783108273536e-01
2.040800000000000125e+01,3.890713652312386417e-01,1.703543245086867886e-01,-4.295344224290584823e-01,4.815992895718982370e-01
2.042000000000000171e+01,3.971342806176159645e-01,1.592832204468242474e-01,-4.222987620449016877e-01,4.850310570523294618e-01
2.043199999999999861e+01,4.048816564588832989e-01,1.479255282538761151e-01,-4.149748134331479044e-01,4.882843772481026412e-01
2.044399999999999906e+01,4.123042829716856983e-01,1.362867133733377256e-01,-4.075657224388886668e-01,4.913560967357599729e-01
2.045599999999999952e+01,4.193928276196660643e-01,1.243724430289835509e-01,-4.000747226345708341e-01,4.942430100236959722e-01
2.046799999999999997e+01,4.261378284875831368e-01,1.121886037535335529e-01,-3.925051443701720877e-01,4.969418577766823719e-01
2.048000000000000043e+01,4.325296883120395286e-01,9.974132020557140155e-02,-3.848604243483903509e-01,4.994493254499340340e-01
2.049200000000000088e+01,4.385586692520956897e-01,8.703697531497783801e-02,-3.771441157375586273e-01,5.017620423724219458e-01
2.050400000000000134e+01,4.442148884909026818e-01,7.408223179772141509e-02,-3.693598988347879253e-01,5.038765813228573975e-01
2.051599999999999824e+01,4.494883147681075219e-01,6.088405508100445257e-02,-3.615115922913742508e-01,5.057894586457769570e-01
2.052799999999999869e+01,4.543687659522269717e-01,4.744973767944116183e-02,-3.536031649117760134e-01,5.074971349595572834e-01
2.053999999999999915e+01,4.588459077724255653e-01,3.378692506217933350e-02,-3.456387480364671028e-01,5.089960165128815106e-01
2.055199999999999960e+01,4.629092538403813961e-01,1.990364304925701724e-02,-3.376226485174977920e-01,5.102824572513178225e-01
2.056400000000000006e+01,4.665481671049896417e-01,5.808326773372473641e-03,-3.295593622938754463e-01,5.113527616611274196e-01
2.057600000000000051e+01,4.697518628958106124e-01,-8.490148759942485121e-03,-3.214535885715201213e-01,5.122031884633317933e-01
2.058800000000000097e+01,4.725094137253169624e-01,-2.298243648488475233e-02,-3.133102446097674187e-01,5.128299552373541959e-01
2.060000000000000142e+01,4.748097560352491642e-01,-3.765868343712389793e-02,-3.051344811129249046e-01,5.132292440602909123e-01
2.061199999999999832e+01,4.766416990887284433e-01,-5.250849524784276939e-02,-2.969316982212589773e-01,5.133972082550131155e-01
2.062399999999999878e+01,4.779939362273074033e-01,-6.752089896144626568e-02,-2.887075620908285956e-01,5.133299803478816870e-01
2.063599999999999923e+01,4.788550587307909279e-01,-8.268430417822140999e-02,-2.804680220457861917e-01,5.130236813448734168e-01
2.064799999999999969e+01,4.792135725375523680e-01,-9.798646253540872764e-02,-2.722193282798359149e-01,5.124744314433393733e-01
2.066000000000000014e+01,4.790579181040899859e-01,-1.134144255543236834e-01,-2.639680500756153014e-01,5.116783623054410590e-01
2.067200000000000060e+01,4.783764937047858545e-01,-1.289545008982246332e-01,-2.557210945014162240e-01,5.106316310285043958e-01
2.068400000000000105e+01,4.771576824961574204e-01,-1.445922071054837610e-01,-2.474857255339563966e-01,5.093304359570532958e-01
2.069600000000000151e+01,4.753898836942723749e-01,-1.603122268858936939e-01,-2.392695835435364737e-01,5.077710344910859597e-01
2.070799999999999841e+01,4.730615482393292770e-01,-1.760983590949622146e-01,-2.310807050637555260e-01,5.059497630551487157e-01
2.071999999999999886e+01,4.701612193475583346e-01,-1.919334695323405005e-01,-2.229275427517571628e-01,5.038630594028745691e-01
2.073199999999999932e+01,4.666775783773693953e-01,-2.077994407464441584e-01,-2.148189854265807608e-01,5.015074874417421169e-01
2.074399999999999977e+01,4.625994964638198703e-01,-2.236771210688357214e-01,-2.067643780521855879e-01,4.988797647727339912e-01
2.075600000000000023e+01,4.579160924026948742e-01,-2.395462731490284880e-01,-1.987735415080898183e-01,4.959767931491794735e-01
2.076800000000000068e+01,4.526167972923723637e-01,-2.553855223143640107e-01,-1.908567919637739474e-01,4.927956920680411357e-01
2.078000000000000114e+01,4.466914264676874469e-01,-2.711723051407997631e-01,-1.830249596428867309e-01,4.893338357151031937e-01
2.079200000000000159e+01,4.401302592846286776e-01,-2.868828186898106924e-01,-1.752894067294762936e-01,4.855888934924582623e-01
2.080399999999999849e+01,4.329241273371015608e-01,-3.024919709449360727e-01,-1.676620441306111986e-01,4.815588743621099233e-01
2.081599999999999895e+01,4.250645117062950007e-01,-3.179733330697681604e-01,-1.601553467674598774e-01,4.772421752427935537e-01
2.082799999999999940e+01,4.165436498583303115e-01,-3.332990942081480723e-01,-1.527823670198733275e-01,4.726376336978424519e-01
2.083999999999999986e+01,4.073546528153568769e-01,-3.484400196584018783e-01,-1.455567458971870898e-01,4.677445851492280648e-01
2.085200000000000031e+01,3.974916332277776965e-01,-3.633654133770924388e-01,-1.384927214502138515e-01,4.625629248461693432e-01
2.086400000000000077e+01,3.869498449686631925e-01,-3.780430859055757264e-01,-1.316051338755807598e-01,4.570931748048239762e-01
2.087600000000000122e+01,3.757258348535735260e-01,-3.924393289653187455e-01,-1.249094266935173309e-01,4.513365559175219199e-01
2.088800000000000168e+01,3.638176070572239906e-01,-4.065188981366473220e-01,-1.184216433035138044e-01,4.452950654044244838e-01
2.089999999999999858e+01,3.512248007495694657e-01,-4.202450052211625930e-01,-1.121584181387419443e-01,4.389715597458798690e-01
2.091199999999999903e+01,3.379488814042200251e-01,-4.335793220914190838e-01,-1.061369615495873081e-01,4.323698431882853077e-01
2.092399999999999949e+01,3.239933461374455148e-01,-4.464819980529265431e-01,-1.003750374491511610e-01,4.254947618579698054e-01
2.093599999999999994e+01,3.093639433110191295e-01,-4.589116929837635528e-01,-9.489093264916950710e-02,4.183523034439308730e-01
2.094800000000000040e+01,2.940689064714095413e-01,-4.708256287753758706e-01,-8.970341670416050184e-02,4.109497023186755582e-01
2.096000000000000085e+01,2.781192024940958296e-01,-4.821796618741349127e-01,-8.483169096529109832e-02,4.032955498535802374e-01
2.097200000000000131e+01,2.615287935476132697e-01,-4.929283800150422445e-01,-8.029532542486617075e-02,3.953999095476600223e-01
2.098400000000000176e+01,2.443149121782823008e-01,-5.030252265439543180e-01,-7.611418180923433530e-02,3.872744364223674740e-01
2.099599999999999866e+01,2.264983484334409658e-01,-5.124226560387403762e-01,-7.230832125486785777e-02,3.789324999355202506e-01
2.100799999999999912e+01,2.081037474770011109e-01,-5.210723252568558728e-01,-6.889789478291370728e-02,3.703893094297379118e-01
2.101999999999999957e+01,1.891599155939792110e-01,-5.289253237485622705e-01,-6.590301467636386357e-02,3.616620408495050953e-01
2.103200000000000003e+01,1.697001318161478201e-01,-5.359324487702937789e-01,-6.334360476725157951e-02,3.527699631302282368e-01
2.104400000000000048e+01,1.497624616151239374e-01,-5.420445293961856370e-01,-6.123922756706520754e-02,3.437345622766992959e-01
2.105600000000000094e+01,1.293900681860620239e-01,-5.472128049382000148e-01,-5.960888613196270447e-02,3.345796607009088319e-01
2.106800000000000139e+01,1.086315157696929878e-01,-5.513893629212279768e-01,-5.847079855831917305e-02,3.253315288746425615e-01
2.107999999999999829e+01,8.754105821790822417e-02,-5.545276418871125657e-01,-5.784214306962895402e-02,3.160189857657084156e-01
2.109199999999999875e+01,6.617890458576958235e-02,-5.565830041806881789e-01,-5.773877180251016372e-02,3.066734838645085448e-01
2.110399999999999920e+01,4.461145192206568411e-02,-5.575133835523967685e-01,-5.817489165140171670e-02,2.973291738689001762e-01
2.111599999999999966e+01,2.291147362805273646e-02,-5.572800118358703925e-01,-5.916271091699699947e-02,2.880229432821386215e-01
2.112800000000000011e+01,1.158249767218417787e-03,-5.558482280534331466e-01,-6.071205105602305030e-02,2.787944222990493826e-01
2.114000000000000057e+01,-2.056237644289136274e-02,-5.531883719837821234e-01,-6.282992358810964018e-02,2.696859494238693089e-01
2.115200000000000102e+01,-4.215803400316817107e-02,-5.492767623978090930e-01,-6.552007322239568332e-02,2.607424883040787567e-01
2.116400000000000148e+01,-6.352997175539656927e-02,-5.440967577231738961e-01,-6.878248956903657008e-02,2.520114863148944506e-01
2.117599999999999838e+01,-8.457334094449719952e-02,-5.376398937201499750e-01,-7.261289144759304481e-02,2.435426645420604996e-01
2.118799999999999883e+01,-1.051776375413255860e-01,-5.299070887222099291e-01,-7.700218984276659129e-02,2.353877280589753707e-01
2.119999999999999929e+01,-1.252273309152722447e-01,-5.209099020025866889e-01,-8.193593802932980230e-02,2.275999848746576293e-01
2.121199999999999974e+01,-1.446027066036656705e-01,-5.106718247797511490e-01,-8.739378032083365555e-02,2.202338617650106134e-01
2.122400000000000020e+01,-1.631809511550218472e-01,-4.992295762157057948e-01,-9.334891429675584718e-02,2.133443055448618342e-01
2.123600000000000065e+01,-1.808375059383793559e-01,-4.866343684989580254e-01,-9.976758520221219728e-02,2.069860593752488598e-01
2.124800000000000111e+01,-1.974477139532370973e-01,-4.729530958412673236e-01,-1.066086354159402616e-01,2.012128056400264431e-01
2.126000000000000156e+01,-2.128887785284276912e-01,-4.582693921880547361e-01,-1.138231363025985904e-01,1.960761699976362737e-01
2.127199999999999847e+01,-2.270420448154182314e-01,-4.426844920552146512e-01,-1.213541341764123316e-01,1.916245856519404323e-01
2.128399999999999892e+01,-2.397956036257250512e-01,-4.263178187860391377e-01,-1.291365461744274912e-01,1.879020229052549007e-01
2.129599999999999937e+01,-2.510472019761262330e-01,-4.093072155520796618e-01,-1.370972451226840916e-01,1.849465968183820475e-01
2.130799999999999983e+01,-2.607074254052050843e-01,-3.918087277588538364e-01,-1.451553744107356714e-01,1.827890753685035841e-01
2.132000000000000028e+01,-2.687030937175278744e-01,-3.739958425916342644e-01,-1.532229337914031986e-01,1.814513217727875549e-01
2.133200000000000074e+01,-2.749807847371389391e-01,-3.560580938994652445e-01,-1.612056741380244740e-01,1.809447173212807014e-01
2.134400000000000119e+01,-2.795103709266558156e-01,-3.381989502322915175e-01,-1.690043327474482215e-01,1.812686245438712151e-01
2.135600000000000165e+01,-2.822884230771005032e-01,-3.206329223111891169e-01,-1.765162300783935379e-01,1.824089638980413708e-01
2.136799999999999855e+01,-2.833413062100124113e-01,-3.035818548865731881e-01,-1.836372333736800144e-01,1.843369891289335094e-01
2.137999999999999901e+01,-2.827277686470656137e-01,-2.872704075174362104e-01,-1.902640723090853747e-01,1.870083554164624629e-01
2.139199999999999946e+01,-2.805408098108059245e-01,-2.719207789347836690e-01,-1.962969670542195899e-01,1.903625785490939137e-01
2.140399999999999991e+01,-2.769086099436885995e-01,-2.577467885734147091e-01,-2.016425010228990455e-01,1.943229807582745883e-01
2.141600000000000037e+01,-2.719943195790024415e-01,-2.449474931291578395e-01,-2.062166410162477315e-01,1.987972078253004149e-01
2.142800000000000082e+01,-2.659945413762449529e-01,-2.337005804279861931e-01,-2.099477790829907264e-01,2.036783814841744422e-01
2.144000000000000128e+01,-2.591363932761141520e-01,-2.241558407445060352e-01,-2.127796465254340463e-01,2.088469207336244027e-01
2.145199999999999818e+01,-2.516731188445289757e-01,-2.164290592806787650e-01,-2.146739346599848275e-01,2.141730263940468670e-01
2.146399999999999864e+01,-2.438783042124128830e-01,-2.105966950912420144e-01,-2.156124526156670551e-01,2.195197774611668262e-01
2.147599999999999909e+01,-2.360388641399753795e-01,-2.066917048057662631e-01,-2.155986622743984171e-01,2.247467392702116318e-01
2.148799999999999955e+01,-2.284470627295549505e-01,-2.047008300636996569e-01,-2.146584557049480424e-01,2.297139370559699856e-01
2.150000000000000000e+01,-2.213919258208601193e-01,-2.045635953473194379e-01,-2.128400805470080093e-01,2.342860095904653328e-01
2.151200000000000045e+01,-2.151504706669404299e-01,-2.061731619371549584e-01,-2.102131711083631560e-01,2.383363313900374036e-01
2.152400000000000091e+01,-2.099792143818011714e-01,-2.093790624373460529e-01,-2.068669028373484597e-01,2.417508825999639677e-01
2.153600000000000136e+01,-2.061064196371172330e-01,-2.139917106234906496e-01,-2.029073492772553444e-01,2.444316553010972559e-01
2.154800000000000182e+01,-2.037254927150379258e-01,-2.197884570339618815e-01,-1.984541769576382564e-01,2.462994134610579366e-01
2.155999999999999872e+01,-2.029898691221124762e-01,-2.265208553425363536e-01,-1.936368587130257723e-01,2.472956683980917225e-01
2.157199999999999918e+01,-2.040096141764707049e-01,-2.339227293716909517e-01,-1.885906148358597323e-01,2.473837876215999321e-01
2.158399999999999963e+01,-2.068498424059781182e-01,-2.417185928245249027e-01,-1.834523016117740046e-01,2.465492160488992335e-01
2.159600000000000009e+01,-2.115309338703781905e-01,-2.496319755834688070e-01,-1.783564579872470857e-01,2.447988482558099976e-01
2.160800000000000054e+01,-2.180304106728300495e-01,-2.573932488231357452e-01,-1.734316955943673577e-01,2.421596425892226512e-01
2.162000000000000099e+01,-2.262862435161831776e-01,-2.647466090586997334e-01,-1.687975791741487264e-01,2.386766080830158010e-01
2.163200000000000145e+01,-2.362012930243880815e-01,-2.714559686907860314e-01,-1.645620987429953219e-01,2.344103205494192932e-01
2.164399999999999835e+01,-2.476485563244529564e-01,-2.773095966980255178e-01,-1.608197869941880576e-01,2.294341344034722674e-01
2.165599999999999881e+01,-2.604768847750610905e-01,-2.821234475960371912e-01,-1.576504902213571868e-01,2.238312529845286891e-01
2.166799999999999926e+01,-2.745168593563633852e-01,-2.857432012584431580e-01,-1.551187621964123797e-01,2.176918049779728859e-01
2.167999999999999972e+01,-2.895865497968793667e-01,-2.880451049438352840e-01,-1.532738202594912946e-01,2.111100513747113383e-01
2.169200000000000017e+01,-3.054969349723715699e-01,-2.889357589626955214e-01,-1.521499823302220888e-01,2.041818197675000501e-01
2.170400000000000063e+01,-3.220568187300341112e-01,-2.883510184596353443e-01,-1.517674923859135550e-01,1.970022339010827350e-01
2.171600000000000108e+01,-3.390771313582204849e-01,-2.862541973661911210e-01,-1.521336390554618723e-01,1.896637788827502391e-01
2.172800000000000153e+01,-3.563745581528282025e-01,-2.826337595812608017e-01,-1.532440757041262092e-01,1.822547181754898549e-01
2.173999999999999844e+01,-3.737744801686474494e-01,-2.775006703740414138e-01,-1.550842588872896888e-01,1.748578585252037465e-01
2.175199999999999889e+01,-3.911132469333802320e-01,-2.708855614693597702e-01,-1.576309335369139031e-01,1.675496437318268750e-01
2.176399999999999935e+01,-4.082398264326356219e-01,-2.628358395388674662e-01,-1.608536061435827391e-01,1.603995475533298021e-01
2.177599999999999980e+01,-4.250168946637631895e-01,-2.534128425993412703e-01,-1.647159602580363924e-01,1.534697295647843296e-01
2.178800000000000026e+01,-4.413214366383583775e-01,-2.426891241745158523e-01,-1.691771809502604362e-01,1.468149148111480007e-01
2.180000000000000071e+01,-4.570449342730188991e-01,-2.307459224279716226e-01,-1.741931658456632170e-01,1.404824578431299875e-01
2.181200000000000117e+01,-4.720932155749765213e-01,-2.176708516698866724e-01,-1.797176096947308011e-01,1.345125534764961828e-01
2.182400000000000162e+01,-4.863860352393837849e-01,-2.035558370663908545e-01,-1.857029570266401086e-01,1.289385597069560019e-01
2.183599999999999852e+01,-4.998564503868440090e-01,-1.884953000788713862e-01,-1.921012233427222271e-01,1.237874020917929946e-01
2.184799999999999898e+01,-5.124500476286787398e-01,-1.725845919390963934e-01,-1.988646896746295301e-01,1.190800331389581385e-01
2.185999999999999943e+01,-5.241240696814156719e-01,-1.559186649908197164e-01,-2.059464783699806179e-01,1.148319244996203331e-01
