Frequency, Re(SMin1Min1), Im(SMin1Min1), Re(SMax1Min1), Im(SMax1Min1)
2.000000000000000000e+01,2.825139025203924903e-01,3.150682603780611268e-01,-5.397736057007969102e-01,4.181948734064476758e-01
2.001200000000000045e+01,2.913016297741337080e-01,3.089044532982755387e-01,-5.345289880645969216e-01,4.223411033332584164e-01
2.002400000000000091e+01,2.999618670362472206e-01,3.025686169040691098e-01,-5.292484601649912745e-01,4.264103021150605910e-01
2.003600000000000136e+01,3.084929418274480750e-01,2.960607289481065330e-01,-5.239305965446927615e-01,4.304023598494273739e-01
2.004799999999999827e+01,3.168930550440213767e-01,2.893807054020507419e-01,-5.185740217508855165e-01,4.343170321670941636e-01
2.005999999999999872e+01,3.251602758941050109e-01,2.825284049187151147e-01,-5.131774105134839781e-01,4.381539433626763791e-01
2.007199999999999918e+01,3.332925367163404595e-01,2.755036334603809256e-01,-5.077394881208814326e-01,4.419125891330814015e-01
2.008399999999999963e+01,3.412876276757638161e-01,2.683061491147655797e-01,-5.022590309984948931e-01,4.455923389540417112e-01
2.009600000000000009e+01,3.491431913326062397e-01,2.609356671213518553e-01,-4.967348674960047616e-01,4.491924381228170615e-01
2.010800000000000054e+01,3.568567170803544908e-01,2.533918651317851878e-01,-4.911658788896401395e-01,4.527120094933635430e-01
2.012000000000000099e+01,3.644255354504651878e-01,2.456743887298450668e-01,-4.855510006064909234e-01,4.561500549282192507e-01
2.013200000000000145e+01,3.718468122821425026e-01,2.377828572373491545e-01,-4.798892236782495435e-01,4.595054564902937289e-01
2.014399999999999835e+01,3.791175427565592337e-01,2.297168698345767868e-01,-4.741795964327112922e-01,4.627769773962543409e-01
2.015599999999999881e+01,3.862345452962369086e-01,2.214760120245864994e-01,-4.684212264317519914e-01,4.659632627526465454e-01
2.016799999999999926e+01,3.931944553318589275e-01,2.130598624732183699e-01,-4.626132826653285290e-01,4.690628400946774690e-01
2.017999999999999972e+01,3.999937189400106785e-01,2.044680002576482469e-01,-4.567549980117308617e-01,4.720741197476052697e-01
2.019200000000000017e+01,4.066285863571738046e-01,1.957000125589703765e-01,-4.508456719750304487e-01,4.749953950298989591e-01
2.020400000000000063e+01,4.130951053773894710e-01,1.867555028353858892e-01,-4.448846737114646177e-01,4.778248423177794968e-01
2.021600000000000108e+01,4.193891146429841177e-01,1.776340995149757462e-01,-4.388714453571443408e-01,4.805605209902126251e-01
2.022800000000000153e+01,4.255062368400166495e-01,1.683354652496498460e-01,-4.328055056702835857e-01,4.832003732744298841e-01
2.023999999999999844e+01,4.314418718129425234e-01,1.588593067725587726e-01,-4.266864540019603136e-01,4.857422240120196077e-01
2.025199999999999889e+01,4.371911896158789945e-01,1.492053854050652273e-01,-4.205139746100017284e-01,4.881837803665239339e-01
2.026399999999999935e+01,4.427491235212738241e-01,1.393735282606581583e-01,-4.142878413315585484e-01,4.905226314946160571e-01
2.027599999999999980e+01,4.481103630095815693e-01,1.293636401955690907e-01,-4.080079226302497086e-01,4.927562482036431657e-01
2.028800000000000026e+01,4.532693467691424338e-01,1.191757165585051181e-01,-4.016741870349397892e-01,4.948819826199991612e-01
2.030000000000000071e+01,4.582202557382384911e-01,1.088098567939221051e-01,-3.952867089873186579e-01,4.968970678943395725e-01
2.031200000000000117e+01,4.629570062272577169e-01,9.826627895565631654e-02,-3.888456751164089398e-01,4.987986179712449175e-01
2.032400000000000162e+01,4.674732431639031516e-01,8.754533518985493923e-02,-3.823513909583157733e-01,5.005836274532432517e-01
2.033599999999999852e+01,4.717623335106883586e-01,7.664752824848899970e-02,-3.758042881401878477e-01,5.022489715912680230e-01
2.034799999999999898e+01,4.758173599100378182e-01,6.557352909657723772e-02,-3.692049320474125040e-01,5.037914064364485967e-01
2.035999999999999943e+01,4.796311146199301323e-01,5.432419567803665333e-02,-3.625540299933461830e-01,5.052075691904881483e-01
2.037199999999999989e+01,4.831960938111338200e-01,4.290059290698422512e-02,-3.558524399108194958e-01,5.064939787958370188e-01
2.038400000000000034e+01,4.865044923050436676e-01,3.130401395227087880e-02,-3.491011795844241594e-01,5.076470368095168384e-01
2.039600000000000080e+01,4.895481988414284169e-01,1.953600288426777035e-02,-3.423014364421712030e-01,5.086630286088728026e-01
2.040800000000000125e+01,4.923187919752761710e-01,7.598378753177148504e-03,-3.354545779243854331e-01,5.095381249813244473e-01
2.042000000000000171e+01,4.948075367133402125e-01,-4.506738831508289890e-03,-3.285621624466775748e-01,5.102683841548089072e-01
2.043199999999999861e+01,4.970053820131498101e-01,-1.677690255203422021e-02,-3.216259509724745391e-01,5.108497543303706090e-01
2.044399999999999906e+01,4.989029592806196178e-01,-2.920930859649951972e-02,-3.146479192087413557e-01,5.112780767835568563e-01
2.045599999999999952e+01,5.004905820165750363e-01,-4.180076617137246098e-02,-3.076302704363549911e-01,5.115490896068961568e-01
2.046799999999999997e+01,5.017582467779204691e-01,-5.454766525120929854e-02,-3.005754489836273691e-01,5.116584321716270978e-01
2.048000000000000043e+01,5.026956356358043276e-01,-6.744594250893383436e-02,-2.934861543481968038e-01,5.116016503930759241e-01
2.049200000000000088e+01,5.032921203306840452e-01,-8.049104537664499015e-02,-2.863653559682451943e-01,5.113742028909056270e-01
2.050400000000000134e+01,5.035367683431614116e-01,-9.367789419456459821e-02,-2.792163086391274418e-01,5.109714681423229710e-01
2.051599999999999824e+01,5.034183511193045524e-01,-1.070008424157471716e-01,-2.720425685656633341e-01,5.103887527336817831e-01
2.052799999999999869e+01,5.029253547104235444e-01,-1.204536348464353424e-01,-2.648480100334775211e-01,5.096213008235793707e-01
2.053999999999999915e+01,5.020459931092886574e-01,-1.340293639163372963e-01,-2.576368426748655849e-01,5.086643049383340331e-01
2.055199999999999960e+01,5.007682245880096250e-01,-1.477204239909614136e-01,-2.504136292954149967e-01,5.075129182287968499e-01
2.056400000000000006e+01,4.990797713667178281e-01,-1.615184637586236371e-01,-2.431833042170482295e-01,5.061622683255507793e-01
2.057600000000000051e+01,4.969681429668496575e-01,-1.754143367492993488e-01,-2.359511920810299368e-01,5.046074729377184598e-01
2.058800000000000097e+01,4.944206636279192546e-01,-1.893980500708141168e-01,-2.287230270406747090e-01,5.028436573486045891e-01
2.060000000000000142e+01,4.914245041919265145e-01,-2.034587114808013297e-01,-2.215049722578579239e-01,5.008659739691747603e-01
2.061199999999999832e+01,4.879667188845842052e-01,-2.175844749506078424e-01,-2.143036395997930943e-01,4.986696241177069888e-01
2.062399999999999878e+01,4.840342874469749646e-01,-2.317624849206529614e-01,-2.071261094127208602e-01,4.962498822006564669e-01
2.063599999999999923e+01,4.796141630944929513e-01,-2.459788194958035246e-01,-1.999799502270449836e-01,4.936021224755906545e-01
2.064799999999999969e+01,4.746933268013288632e-01,-2.602184328849325712e-01,-1.928732382237823839e-01,4.907218485816877140e-01
2.066000000000000014e+01,4.692588484276374317e-01,-2.744650974512921060e-01,-1.858145762649653920e-01,4.876047260264572691e-01
2.067200000000000060e+01,4.632979552219086972e-01,-2.887013458099802476e-01,-1.788131122605612910e-01,4.842466178185831915e-01
2.068400000000000105e+01,4.567981082419482197e-01,-3.029084134866190103e-01,-1.718785566115656471e-01,4.806436234357395754e-01
2.069600000000000151e+01,4.497470872430852640e-01,-3.170661827367532437e-01,-1.650211984330271775e-01,4.767921213123281210e-01
2.070799999999999841e+01,4.421330845803231879e-01,-3.311531282198855730e-01,-1.582519202218050092e-01,4.726888150248533815e-01
2.071999999999999886e+01,4.339448086607599064e-01,-3.451462653245542245e-01,-1.515822105920218432e-01,4.683307833413178356e-01
2.073199999999999932e+01,4.251715974617197302e-01,-3.590211020523835783e-01,-1.450241746563019629e-01,4.637155342851148609e-01
2.074399999999999977e+01,4.158035425970705856e-01,-3.727515954884284000e-01,-1.385905415832811849e-01,4.588410633424173657e-01
2.075600000000000023e+01,4.058316243667385304e-01,-3.863101140132406686e-01,-1.322946688118375180e-01,4.537059159143116416e-01
2.076800000000000068e+01,3.952478581604713104e-01,-3.996674065466780945e-01,-1.261505423502253254e-01,4.483092540801151826e-01
2.078000000000000114e+01,3.840454525035250644e-01,-4.127925802549053391e-01,-1.201727725345052983e-01,4.426509276951657856e-01
2.079200000000000159e+01,3.722189789274766292e-01,-4.256530882980816832e-01,-1.143765845659301811e-01,4.367315497943667357e-01
2.080399999999999849e+01,3.597645537196371701e-01,-4.382147293448162007e-01,-1.087778030920970168e-01,4.305525762104221443e-01
2.081599999999999895e+01,3.466800314486104262e-01,-4.504416607291605867e-01,-1.033928300429741431e-01,4.241163892423377990e-01
2.082799999999999940e+01,3.329652099769208062e-01,-4.622964272719459200e-01,-9.823861488140370191e-02,4.174263851242343559e-01
2.083999999999999986e+01,3.186220464530463703e-01,-4.737400079289158517e-01,-9.333261638020684536e-02,4.104870649457801890e-01
2.085200000000000031e+01,3.036548835215788777e-01,-4.847318825570766099e-01,-8.869275499623609227e-02,4.033041285630144523e-01
2.086400000000000077e+01,2.880706846994066095e-01,-4.952301212039946776e-01,-8.433735487797201780e-02,3.958845709109265476e-01
2.087600000000000122e+01,2.718792775366873360e-01,-5.051914984157152011e-01,-8.028507451982133669e-02,3.882367799866749403e-01
2.088800000000000168e+01,2.550936028126864485e-01,-5.145716351208964312e-01,-7.655482506619253058e-02,3.803706356142600997e-01
2.089999999999999858e+01,2.377299676080822655e-01,-5.233251706740053022e-01,-7.316567527459003073e-02,3.722976079280701511e-01
2.091199999999999903e+01,2.198082996484817531e-01,-5.314059676203446436e-01,-7.013674217299684099e-02,3.640308543243120920e-01
2.092399999999999949e+01,2.013523998306600560e-01,-5.387673516713635813e-01,-6.748706649634321486e-02,3.555853134271507732e-01
2.093599999999999994e+01,1.823901893270564456e-01,-5.453623892403179907e-01,-6.523547206379662344e-02,3.469777944016543825e-01
2.094800000000000040e+01,1.629539471213746205e-01,-5.511442046759612579e-01,-6.340040836721341777e-02,3.382270597210733643e-01
2.096000000000000085e+01,1.430805332657297813e-01,-5.560663390353072222e-01,-6.199977578540265960e-02,3.293538992643106345e-01
2.097200000000000131e+01,1.228115925776809975e-01,-5.600831518458498914e-01,-6.105073302318754502e-02,3.203811933847522941e-01
2.098400000000000176e+01,1.021937329255260818e-01,-5.631502668134529266e-01,-6.056948660254070360e-02,3.113339623588375904e-01
2.099599999999999866e+01,8.127867169688744731e-02,-5.652250618262228965e-01,-6.057106250907843409e-02,3.022393993976867921e-01
2.100799999999999912e+01,6.012334352571137991e-02,-5.662672028801524204e-01,-6.106906042408500462e-02,2.931268841947858306e-01
2.101999999999999957e+01,3.878996188568577252e-02,-5.662392207043944747e-01,-6.207539135252826412e-02,2.840279737952361439e-01
2.103200000000000003e+01,1.734602676481908357e-02,-5.651071278905135387e-01,-6.359999989277732857e-02,2.749763674163073768e-01
2.104400000000000048e+01,-4.135729659552416469e-03,-5.628410732317545850e-01,-6.565057288435992289e-02,2.660078417353828883e-01
2.105600000000000094e+01,-2.557746759952765972e-02,-5.594160287598355374e-01,-6.823223671511621791e-02,2.571601531005021091e-01
2.106800000000000139e+01,-4.689644276864717021e-02,-5.548125036366858831e-01,-7.134724616588204726e-02,2.484729031225540175e-01
2.107999999999999829e+01,-6.800529615763960256e-02,-5.490172776297916890e-01,-7.499466831491467811e-02,2.399873641889672948e-01
2.109199999999999875e+01,-8.881243825555773519e-02,-5.420241453902095996e-01,-7.917006570911348795e-02,2.317462616090855132e-01
2.110399999999999920e+01,-1.092225349244111271e-01,-5.338346611846063183e-01,-8.386518372584164660e-02,2.237935093742124681e-01
2.111599999999999966e+01,-1.291371013148823743e-01,-5.244588721334739745e-01,-8.906764778676368177e-02,2.161738969027638679e-01
2.112800000000000011e+01,-1.484552091227898662e-01,-5.139160264096367392e-01,-9.476067682975825024e-02,2.089327246554935069e-01
2.114000000000000057e+01,-1.670743111142911075e-01,-5.022352412894783846e-01,-1.009228201803984981e-01,2.021153871581808092e-01
2.115200000000000102e+01,-1.848911851797020167e-01,-4.894561144639413830e-01,-1.075277256716867247e-01,1.957669027696992969e-01
2.116400000000000148e+01,-2.018029982019017843e-01,-4.756292606503422227e-01,-1.145439475178864353e-01,1.899313904904971761e-01
2.117599999999999838e+01,-2.177084877419353526e-01,-4.608167543450683579e-01,-1.219348030306905833e-01,1.846514952268857035e-01
2.118799999999999883e+01,-2.325092569509599472e-01,-4.450924585699101987e-01,-1.296582877458541949e-01,1.799677642146030876e-01
2.119999999999999929e+01,-2.461111752177967682e-01,-4.285422187428215013e-01,-1.376670588746649326e-01,1.759179787626624636e-01
2.121199999999999974e+01,-2.584258738639831354e-01,-4.112639004016647726e-01,-1.459084971727712954e-01,1.725364471038287606e-01
2.122400000000000020e+01,-2.693723227144977361e-01,-3.933672494865617653e-01,-1.543248572900907944e-01,1.698532659255617694e-01
2.123600000000000065e+01,-2.788784696207778357e-01,-3.749735543076189725e-01,-1.628535163872101565e-01,1.678935600936862782e-01
2.124800000000000111e+01,-2.868829210168697963e-01,-3.562150892624973419e-01,-1.714273302282970646e-01,1.666767121524561079e-01
2.126000000000000156e+01,-2.933366373834834784e-01,-3.372343219048721252e-01,-1.799751050362346505e-01,1.662155953620230442e-01
2.127199999999999847e+01,-2.982046131261204547e-01,-3.181828671933019104e-01,-1.884221920664189698e-01,1.665158262788401233e-01
2.128399999999999892e+01,-3.014675059100190291e-01,-2.992201757755847402e-01,-1.966912100626358739e-01,1.675750551425532753e-01
2.129599999999999937e+01,-3.031231760322340429e-01,-2.805119471021723654e-01,-2.047028984423127917e-01,1.693823145320715040e-01
2.130799999999999983e+01,-3.031880920830613557e-01,-2.622282631360917660e-01,-2.123771011636886863e-01,1.719174487988008038e-01
2.132000000000000028e+01,-3.016985551366000995e-01,-2.445414445588485752e-01,-2.196338777075470816e-01,1.751506485552069559e-01
2.133200000000000074e+01,-2.987116902531113394e-01,-2.276236387697728181e-01,-2.263947334327085781e-01,1.790421158417276060e-01
2.134400000000000119e+01,-2.943061514804464207e-01,-2.116441577182972822e-01,-2.325839567371874028e-01,1.835418863345612550e-01
2.135600000000000165e+01,-2.885824851852500927e-01,-1.967665937142128729e-01,-2.381300450164724747e-01,1.885898348834967597e-01
2.136799999999999855e+01,-2.816630968713533245e-01,-1.831457527650564021e-01,-2.429671954535387035e-01,1.941158895544723428e-01
2.137999999999999901e+01,-2.736917691512139594e-01,-1.709244575039346736e-01,-2.470368303684192801e-01,2.000404769592330767e-01
2.139199999999999946e+01,-2.648326837503036102e-01,-1.602302850514640553e-01,-2.502891204489038346e-01,2.062752177586957003e-01
2.140399999999999991e+01,-2.552689088505405990e-01,-1.511723186681122044e-01,-2.526844630200744124e-01,2.127238856388369292e-01
2.141600000000000037e+01,-2.452003251439775766e-01,-1.438380050554021461e-01,-2.541948670240631869e-01,2.192836356603618531e-01
2.142800000000000082e+01,-2.348409799417796040e-01,-1.382902206986862392e-01,-2.548051920900316070e-01,2.258464986662971630e-01
2.144000000000000128e+01,-2.244158785912592768e-01,-1.345646595673100632e-01,-2.545141865530156644e-01,2.323011275327470926e-01
2.145199999999999818e+01,-2.141572459871963485e-01,-1.326676595223840460e-01,-2.533352691198089701e-01,2.385347687862924004e-01
2.146399999999999864e+01,-2.043003173963154617e-01,-1.325745846245432180e-01,-2.512970016293231690e-01,2.444354200113158515e-01
2.147599999999999909e+01,-1.950787459633615550e-01,-1.342288739792866226e-01,-2.484432064474652035e-01,2.498941202637657288e-01
2.148799999999999955e+01,-1.867197424758740842e-01,-1.375418538789807688e-01,-2.448326917123307966e-01,2.548073083134789751e-01
2.150000000000000000e+01,-1.794390891737494831e-01,-1.423933883228881980e-01,-2.405385608723820956e-01,2.590791730054502473e-01
2.151200000000000045e+01,-1.734361912607844669e-01,-1.486334136749630497e-01,-2.356470993731220043e-01,2.626239124570265981e-01
2.152400000000000091e+01,-1.688893449051145634e-01,-1.560843671633079244e-01,-2.302562502171147385e-01,2.653678152205447560e-01
2.153600000000000136e+01,-1.659514066976993663e-01,-1.645444778655864859e-01,-2.244737103642851506e-01,2.672510777663153481e-01
2.154800000000000182e+01,-1.647460450627275530e-01,-1.737918452560128224e-01,-2.184147001779503661e-01,2.682292791767417195e-01
2.155999999999999872e+01,-1.653647380568995517e-01,-1.835891874238873567e-01,-2.121994768012027965e-01,2.682744458471356119e-01
2.157199999999999918e+01,-1.678646544401807827e-01,-1.936891021482145536e-01,-2.059506778870906218e-01,2.673756558157989738e-01
2.158399999999999963e+01,-1.722675170664981770e-01,-2.038396525424428507e-01,-1.997905930786082473e-01,2.655391531389386661e-01
2.159600000000000009e+01,-1.785595018505353460e-01,-2.137900679412387539e-01,-1.938384659483230743e-01,2.627879660811848206e-01
2.160800000000000054e+01,-1.866921750640814781e-01,-2.232963422414515620e-01,-1.882079281505036894e-01,2.591610470905806318e-01
2.162000000000000099e+01,-1.965844203526174450e-01,-2.321265170612941409e-01,-1.830046602746145945e-01,2.547119757122752737e-01
2.163200000000000145e+01,-2.081252586645911673e-01,-2.400654555863380446e-01,-1.783243608734973451e-01,2.495072859848420088e-01
2.164399999999999835e+01,-2.211774229959440063e-01,-2.469189432909537352e-01,-1.742510874638054652e-01,2.436244959454215153e-01
2.165599999999999881e+01,-2.355815185003046208e-01,-2.525169912211168155e-01,-1.708560124542081726e-01,2.371499275707663612e-01
2.166799999999999926e+01,-2.511605790984992037e-01,-2.567162627907998984e-01,-1.681966146695794972e-01,2.301764102652665012e-01
2.167999999999999972e+01,-2.677248250229748994e-01,-2.594015923109581623e-01,-1.663163051527100089e-01,2.228009599066294033e-01
2.169200000000000017e+01,-2.850764313199411482e-01,-2.604866090494918351e-01,-1.652444658232234131e-01,2.151225190302578083e-01
2.170400000000000063e+01,-3.030141337006548863e-01,-2.599135212983575971e-01,-1.649968626249803672e-01,2.072398329453470911e-01
2.171600000000000108e+01,-3.213375229787359677e-01,-2.576521482503897897e-01,-1.655763818557970113e-01,1.992495226699051714e-01
2.172800000000000153e+01,-3.398509098832837583e-01,-2.536983119464338854e-01,-1.669740298564511838e-01,1.912443998990888683e-01
2.173999999999999844e+01,-3.583666754114723796e-01,-2.480717165864552154e-01,-1.691701321250285162e-01,1.833120530913168733e-01
2.175199999999999889e+01,-3.767080553821224309e-01,-2.408134484206552184e-01,-1.721356678455012446e-01,1.755337183174538185e-01
2.176399999999999935e+01,-3.947113391997714160e-01,-2.319832272594868072e-01,-1.758336791434998159e-01,1.679834346737436868e-01
2.177599999999999980e+01,-4.122274903301937909e-01,-2.216565318500990922e-01,-1.802207003210499758e-01,1.607274724284510903e-01
2.178800000000000026e+01,-4.291232185320301151e-01,-2.099217076897816059e-01,-1.852481600371452264e-01,1.538240129903082343e-01
2.180000000000000071e+01,-4.452815509871342892e-01,-1.968771490495518917e-01,-1.908637180876617268e-01,1.473230533323232894e-01
2.181200000000000117e+01,-4.606019611333915798e-01,-1.826286286978599238e-01,-1.970125073874396393e-01,1.412665035491572352e-01
2.182400000000000162e+01,-4.750001206310009438e-01,-1.672868304382039706e-01,-2.036382603950427361e-01,1.356884444925414990e-01
2.183599999999999852e+01,-4.884073421557073580e-01,-1.509651221940458976e-01,-2.106843071222959662e-01,1.306155125485465029e-01
2.184799999999999898e+01,-5.007697794260642654e-01,-1.337775917589954233e-01,-2.180944387592433087e-01,1.260673801850779874e-01
2.185999999999999943e+01,-5.120474468964445469e-01,-1.158373539483999459e-01,-2.258136366755659485e-01,1.220573035025103031e-01
