Frequency, Re(SMin1Min1), Im(SMin1Min1), Re(SMax1Min1), Im(SMax1Min1)
2.000000000000000000e+01,2.447442572780945680e-01,3.286363118502101388e-01,-5.526884557048277191e-01,4.019784850598474568e-01
2.001200000000000045e+01,2.539785709765384203e-01,3.228382547924515400e-01,-5.476514494079253170e-01,4.064473009941258486e-01
2.002400000000000091e+01,2.631052106113292433e-01,3.168695950396601124e-01,-5.425592509042715950e-01,4.108477710860659604e-01
2.003600000000000136e+01,2.721217079487708856e-01,3.107292136865926757e-01,-5.374113935686556376e-01,4.151786433604451876e-01
2.004799999999999827e+01,2.810254684701123939e-01,3.044159989016841927e-01,-5.322074303558731456e-01,4.194386171707611966e-01
2.005999999999999872e+01,2.898137680009101325e-01,2.979288484925947111e-01,-5.269469350045853373e-01,4.236263415850659020e-01
2.007199999999999918e+01,2.984837492020354643e-01,2.912666726867266798e-01,-5.216295033542270865e-01,4.277404137395351413e-01
2.008399999999999963e+01,3.070324179223000716e-01,2.844283971421225909e-01,-5.162547547815368176e-01,4.317793771602594921e-01
2.009600000000000009e+01,3.154566394129006968e-01,2.774129662040124567e-01,-5.108223337640519501e-01,4.357417200541960356e-01
2.010800000000000054e+01,3.237531344047299142e-01,2.702193464243383692e-01,-5.053319115780078308e-01,4.396258735702518461e-01
2.012000000000000099e+01,3.319184750500561165e-01,2.628465303626255634e-01,-4.997831881388659081e-01,4.434302100321949047e-01
2.013200000000000145e+01,3.399490807303315321e-01,2.552935406865514123e-01,-4.941758939927642369e-01,4.471530411451789533e-01
2.014399999999999835e+01,3.478412137331394205e-01,2.475594345936822926e-01,-4.885097924680356085e-01,4.507926161782997987e-01
2.015599999999999881e+01,3.555909748016854444e-01,2.396433085752212311e-01,-4.827846819963169112e-01,4.543471201260541048e-01
2.016799999999999926e+01,3.631942985617536146e-01,2.315443035455884702e-01,-4.770003986132481111e-01,4.578146718520326730e-01
2.017999999999999972e+01,3.706469488308620219e-01,2.232616103618021153e-01,-4.711568186493013677e-01,4.611933222188823178e-01
2.019200000000000017e+01,3.779445138176362184e-01,2.147944757588939602e-01,-4.652538616221483792e-01,4.644810522093310579e-01
2.020400000000000063e+01,3.850824012179349665e-01,2.061422087288344029e-01,-4.592914933419969259e-01,4.676757710434484849e-01
2.021600000000000108e+01,3.920558332188139317e-01,1.973041873717233663e-01,-4.532697292425426627e-01,4.707753142987400885e-01
2.022800000000000153e+01,3.988598414208204823e-01,1.882798662507320642e-01,-4.471886379504259601e-01,4.737774420399211150e-01
2.023999999999999844e+01,4.054892616916256909e-01,1.790687842823777687e-01,-4.410483451068354932e-01,4.766798369666036539e-01
2.025199999999999889e+01,4.119387289669436680e-01,1.696705731969562758e-01,-4.348490374553350413e-01,4.794801025884496415e-01
2.026399999999999935e+01,4.182026720157890343e-01,1.600849666050640219e-01,-4.285909672112222513e-01,4.821757614378024415e-01
2.027599999999999980e+01,4.242753081906304735e-01,1.503118097078976756e-01,-4.222744567275177885e-01,4.847642533320016267e-01
2.028800000000000026e+01,4.301506381851412653e-01,1.403510696911194622e-01,-4.158999034740177292e-01,4.872429336984924753e-01
2.030000000000000071e+01,4.358224408264548266e-01,1.302028468443980069e-01,-4.094677853461681227e-01,4.896090719777027589e-01
2.031200000000000117e+01,4.412842679316019145e-01,1.198673864495869851e-01,-4.029786663210898623e-01,4.918598501204176632e-01
2.032400000000000162e+01,4.465294392611141028e-01,1.093450914832601040e-01,-3.964332024787687314e-01,4.939923611980456819e-01
2.033599999999999852e+01,4.515510376095229761e-01,9.863653618143410073e-02,-3.898321484068992260e-01,4.960036081469015312e-01
2.034799999999999898e+01,4.563419040742788813e-01,8.774248051462310571e-02,-3.831763640081881639e-01,4.978905026691988200e-01
2.035999999999999943e+01,4.608946335519941706e-01,7.666388562548605290e-02,-3.764668217297964525e-01,4.996498643165943609e-01
2.037199999999999989e+01,4.652015705155230774e-01,6.540193028011395682e-02,-3.697046142341401387e-01,5.012784197844832867e-01
2.038400000000000034e+01,4.692548051327596892e-01,5.395802838836726706e-02,-3.628909625312443654e-01,5.027728024485459413e-01
2.039600000000000080e+01,4.730461697936541032e-01,4.233384764774294345e-02,-3.560272245923359336e-01,5.041295521779816102e-01
2.040800000000000125e+01,4.765672361207709540e-01,3.053132936710457879e-02,-3.491149044646593702e-01,5.053451154637382814e-01
2.042000000000000171e+01,4.798093125463462894e-01,1.855270952796740994e-02,-3.421556619068706895e-01,5.064158459036953719e-01
2.043199999999999861e+01,4.827634425482222325e-01,6.400541140138547511e-03,-3.351513225641339910e-01,5.073380050908302685e-01
2.044399999999999906e+01,4.854204036459399685e-01,-5.922282050725963427e-03,-3.281038887012320271e-01,5.081077639550921621e-01
2.045599999999999952e+01,4.877707072706047864e-01,-1.841250044676799244e-02,-3.210155505105117268e-01,5.087212046143597677e-01
2.046799999999999997e+01,4.898045996320137263e-01,-3.106646201772758978e-02,-3.138886980108755442e-01,5.091743227950379369e-01
2.048000000000000043e+01,4.915120637200154352e-01,-4.388009420321094950e-02,-3.067259335512406704e-01,5.094630308885210734e-01
2.049200000000000088e+01,4.928828225902311955e-01,-5.684887424723569782e-02,-2.995300849302898194e-01,5.095831617154462645e-01
2.050400000000000134e+01,4.939063440990372200e-01,-6.996779791834098483e-02,-2.923042191408948276e-01,5.095304730763158263e-01
2.051599999999999824e+01,4.945718472677252397e-01,-8.323134657423630900e-02,-2.850516567446367278e-01,5.093006531733429432e-01
2.052799999999999869e+01,4.948683104731345095e-01,-9.663345253623759068e-02,-2.777759868770980911e-01,5.088893269959411381e-01
2.053999999999999915e+01,4.947844816788037337e-01,-1.101674627468813422e-01,-2.704810828799824596e-01,5.082920637693221222e-01
2.055199999999999960e+01,4.943088909406834208e-01,-1.238261006945045456e-01,-2.631711185498986083e-01,5.075043855738842202e-01
2.056400000000000006e+01,4.934298654405318563e-01,-1.376014266001683861e-01,-2.558505849868065729e-01,5.065217772510011152e-01
2.057600000000000051e+01,4.921355473210083376e-01,-1.514847958774151460e-01,-2.485243080169819152e-01,5.053396977194505313e-01
2.058800000000000097e+01,4.904139146190559795e-01,-1.654668158919308796e-01,-2.411974661558398680e-01,5.039535928354359484e-01
2.060000000000000142e+01,4.882528056164583963e-01,-1.795373010691191373e-01,-2.338756090651157027e-01,5.023589099380686429e-01
2.061199999999999832e+01,4.856399469498900445e-01,-1.936852264206010144e-01,-2.265646764464533114e-01,5.005511142312890627e-01
2.062399999999999878e+01,4.825629858475367073e-01,-2.078986795887419747e-01,-2.192710172990024464e-01,4.985257071620914915e-01
2.063599999999999923e+01,4.790095268831384701e-01,-2.221648115396274437e-01,-2.120014094526117276e-01,4.962782469639832050e-01
2.064799999999999969e+01,4.749671736631255192e-01,-2.364697860717097366e-01,-2.047630792695244173e-01,4.938043715430230907e-01
2.066000000000000014e+01,4.704235758868727801e-01,-2.507987283489709340e-01,-1.975637213869164410e-01,4.910998238919583314e-01
2.067200000000000060e+01,4.653664822431045622e-01,-2.651356727149026260e-01,-1.904115183491293939e-01,4.881604802252377251e-01
2.068400000000000105e+01,4.597837996279948158e-01,-2.794635100974707798e-01,-1.833151599523606678e-01,4.849823810339720098e-01
2.069600000000000151e+01,4.536636591903508431e-01,-2.937639353758081384e-01,-1.762838620954484958e-01,4.815617652648611635e-01
2.070799999999999841e+01,4.469944897268269823e-01,-3.080173951474390326e-01,-1.693273848980473839e-01,4.778951078301606481e-01
2.071999999999999886e+01,4.397650989636669450e-01,-3.222030364108809386e-01,-1.624560498117768315e-01,4.739791606567550497e-01
2.073199999999999932e+01,4.319647632704839424e-01,-3.362986567628703516e-01,-1.556807554106961755e-01,4.698109974805138034e-01
2.074399999999999977e+01,4.235833263543978822e-01,-3.502806568031063272e-01,-1.490129915044304532e-01,4.653880625868828114e-01
2.075600000000000023e+01,4.146113074782777908e-01,-3.641239955421223806e-01,-1.424648511705774168e-01,4.607082236894131100e-01
2.076800000000000068e+01,4.050400197330548124e-01,-3.778021497206437984e-01,-1.360490402524026921e-01,4.557698291237913812e-01
2.078000000000000114e+01,3.948616988692346119e-01,-3.912870780712780494e-01,-1.297788838134336653e-01,4.505717695150889268e-01
2.079200000000000159e+01,3.840696431547221956e-01,-4.045491916859651482e-01,-1.236683289824989929e-01,4.451135440493999562e-01
2.080399999999999849e+01,3.726583646724551668e-01,-4.175573317948805263e-01,-1.177319435612173143e-01,4.393953314466908511e-01
2.081599999999999895e+01,3.606237523994229588e-01,-4.302787564142063204e-01,-1.119849097013724676e-01,4.334180656883624416e-01
2.082799999999999940e+01,3.479632473156804573e-01,-4.426791374802139800e-01,-1.064430118925403651e-01,4.271835164994491896e-01
2.083999999999999986e+01,3.346760296743965801e-01,-4.547225702547689208e-01,-1.011226184314116261e-01,4.206943745201067175e-01
2.085200000000000031e+01,3.207632184188640712e-01,-4.663715969603688394e-01,-9.604065547472620534e-02,4.139543410227159437e-01
2.086400000000000077e+01,3.062280825556114028e-01,-4.775872467792773857e-01,-9.121457270860741651e-02,4.069682219379028298e-01
2.087600000000000122e+01,2.910762640808160495e-01,-4.883290945281141826e-01,-8.666229960013263622e-02,3.997420258435554485e-01
2.088800000000000168e+01,2.753160118059721495e-01,-4.985553404926129639e-01,-8.240219113411816065e-02,3.922830654439060649e-01
2.089999999999999858e+01,2.589584251343683974e-01,-5.082229140724895400e-01,-7.845296188176102692e-02,3.846000619193916670e-01
2.091199999999999903e+01,2.420177064984153636e-01,-5.172876040377032414e-01,-7.483360720079622330e-02,3.767032513609226974e-01
2.092399999999999949e+01,2.245114207756763181e-01,-5.257042183280469239e-01,-7.156331033262636199e-02,3.686044923130766260e-01
2.093599999999999994e+01,2.064607595550742580e-01,-5.334267764297222492e-01,-6.866133414438889415e-02,3.603173732385538397e-01
2.094800000000000040e+01,1.878908076220849876e-01,-5.404087374259085585e-01,-6.614689626770743625e-02,3.518573184804739129e-01
2.096000000000000085e+01,1.688308084702607181e-01,-5.466032668319908971e-01,-6.403902641611296243e-02,3.432416910394924248e-01
2.097200000000000131e+01,1.493144250264941131e-01,-5.519635452780603524e-01,-6.235640472566369302e-02,3.344898901998031859e-01
2.098400000000000176e+01,1.293799910992096680e-01,-5.564431219766474701e-01,-6.111718006459238017e-02,3.256234417332750097e-01
2.099599999999999866e+01,1.090707483259645005e-01,-5.599963156973374323e-01,-6.033876740499477531e-02,3.166660780864242186e-01
2.100799999999999912e+01,8.843506261453146222e-02,-5.625786656440905364e-01,-6.003762355029577252e-02,3.076438056143633859e-01
2.101999999999999957e+01,6.752661324863663828e-02,-5.641474341776270274e-01,-6.022900077459952123e-02,2.985849555742373651e-01
2.103200000000000003e+01,4.640454697741391160e-02,-5.646621627241085184e-01,-6.092667826246835755e-02,2.895202152346245117e-01
2.104400000000000048e+01,2.513358854350635982e-02,-5.640852814421664085e-01,-6.214267164877457228e-02,2.804826351059694356e-01
2.105600000000000094e+01,3.784098249056130382e-03,-5.623827722625921455e-01,-6.388692145632560160e-02,2.715076079610707072e-01
2.106800000000000139e+01,-1.756793366118833410e-02,-5.595248837483136617e-01,-6.616696182185759223e-02,2.626328150078026669e-01
2.107999999999999829e+01,-3.884096677190360808e-02,-5.554868948280797802e-01,-6.898757159555599094e-02,2.538981343149971370e-01
2.109199999999999875e+01,-5.994807603962100384e-02,-5.502499228190964597e-01,-7.235041070076640712e-02,2.453455063963148886e-01
2.110399999999999920e+01,-8.079721520776050880e-02,-5.438017692596085473e-01,-7.625364555200762895e-02,2.370187517489289741e-01
2.111599999999999966e+01,-1.012915904725865401e-01,-5.361377949152480449e-01,-8.069156835078034051e-02,2.289633351499324176e-01
2.112800000000000011e+01,-1.213301567795146557e-01,-5.272618129040833601e-01,-8.565421620571388173e-02,2.212260716635431890e-01
2.114000000000000057e+01,-1.408082487848075770e-01,-5.171869862159064191e-01,-9.112699724702018333e-02,2.138547696388520825e-01
2.115200000000000102e+01,-1.596183577483133997e-01,-5.059367130054759354e-01,-9.709033220905484429e-02,2.068978065169266023e-01
2.116400000000000148e+01,-1.776510643437101133e-01,-4.935454799575955120e-01,-1.035193213150840674e-01,2.004036340551337836e-01
2.117599999999999838e+01,-1.947961354938404499e-01,-4.800596608140856314e-01,-1.103834476816804439e-01,1.944202106543009845e-01
2.118799999999999883e+01,-2.109437907689968583e-01,-4.655382339021327809e-01,-1.176463298217864523e-01,1.889943598789311230e-01
2.119999999999999929e+01,-2.259861405363202957e-01,-4.500533893213767844e-01,-1.252655371077873725e-01,1.841710560275049147e-01
2.121199999999999974e+01,-2.398187938385804574e-01,-4.336909934748953699e-01,-1.331924831872483006e-01,1.799926397684754875e-01
2.122400000000000020e+01,-2.523426288445135279e-01,-4.165508760437855451e-01,-1.413724132367860653e-01,1.764979694283375089e-01
2.123600000000000065e+01,-2.634657126110356851e-01,-3.987469025189052108e-01,-1.497445014909229710e-01,1.737215165070616907e-01
2.124800000000000111e+01,-2.731053498259329304e-01,-3.804067942667482272e-01,-1.582420755740780727e-01,1.716924173898144446e-01
2.126000000000000156e+01,-2.811902322050912617e-01,-3.616716581041468648e-01,-1.667929836631167340e-01,1.704334969824412016e-01
2.127199999999999847e+01,-2.876626514140852020e-01,-3.426951888022840009e-01,-1.753201192736115188e-01,1.699602840486300614e-01
2.128399999999999892e+01,-2.924807289664855259e-01,-3.236425111656321407e-01,-1.837421163504835142e-01,1.702800422551571380e-01
2.129599999999999937e+01,-2.956206068172669843e-01,-3.046886336677344098e-01,-1.919742242145847377e-01,1.713908451766862906e-01
2.130799999999999983e+01,-2.970785327315078606e-01,-2.860164933792842534e-01,-1.999293676522059804e-01,1.732807275584679896e-01
2.132000000000000028e+01,-2.968727655039197777e-01,-2.678145823435191253e-01,-2.075193919510802676e-01,1.759269487133101884e-01
2.133200000000000074e+01,-2.950452174000798844e-01,-2.502741587864050765e-01,-2.146564859575720297e-01,1.792954067133309681e-01
2.134400000000000119e+01,-2.916627455697617943e-01,-2.335860625927815570e-01,-2.212547683070166527e-01,1.833402436560407078e-01
2.135600000000000165e+01,-2.868180015228342650e-01,-2.179371731292511771e-01,-2.272320130169457608e-01,1.880036823369002630e-01
2.136799999999999855e+01,-2.806297489794389866e-01,-2.035065682894103833e-01,-2.325114809094940282e-01,1.932161327413305374e-01
2.137999999999999901e+01,-2.732425664030981860e-01,-1.904614658161652430e-01,-2.370238132633298855e-01,1.988966025052743558e-01
2.139199999999999946e+01,-2.648258620721256618e-01,-1.789530504323021132e-01,-2.407089342519967423e-01,2.049534385909336509e-01
2.140399999999999991e+01,-2.555721471798967914e-01,-1.691123116722236530e-01,-2.435178998072581869e-01,2.112854177225099717e-01
2.141600000000000037e+01,-2.456945363553378892e-01,-1.610460358620801058e-01,-2.454146233639516728e-01,2.177831906547274543e-01
2.142800000000000082e+01,-2.354234748521548404e-01,-1.548331095573187988e-01,-2.463774043655764523e-01,2.243310703765548642e-01
2.144000000000000128e+01,-2.250027265698596735e-01,-1.505212989853241534e-01,-2.464001842875715720e-01,2.308091374369250492e-01
2.145199999999999818e+01,-2.146846954934595042e-01,-1.481246688715677495e-01,-2.454934580050029125e-01,2.370956175676782463e-01
2.146399999999999864e+01,-2.047251928812904853e-01,-1.476217930419820579e-01,-2.436847761092224007e-01,2.430694687974073731e-01
2.147599999999999909e+01,-1.953778008527091714e-01,-1.489548876004349598e-01,-2.410187864522065626e-01,2.486130986405701293e-01
2.148799999999999955e+01,-1.868880168286452814e-01,-1.520299653212527358e-01,-2.375567805388109632e-01,2.536151181641447816e-01
2.150000000000000000e+01,-1.794873893756600558e-01,-1.567180682061173058e-01,-2.333757316961430905e-01,2.579730302050852742e-01
2.151200000000000045e+01,-1.733878714771072138e-01,-1.628575860102743911e-01,-2.285668360534140464e-01,2.615957449675461177e-01
2.152400000000000091e+01,-1.687766198169126375e-01,-1.702576149901873781e-01,-2.232335926821936156e-01,2.644058185370645186e-01
2.153600000000000136e+01,-1.658114570042334146e-01,-1.787022569567789654e-01,-2.174894839096064847e-01,2.663413188680648913e-01
2.154800000000000182e+01,-1.646171877192949828e-01,-1.879557081259413676e-01,-2.114553388572910919e-01,2.673572392831834454e-01
2.155999999999999872e+01,-1.652829208066446121e-01,-1.977679443861022901e-01,-2.052564808222958892e-01,2.674264005890172324e-01
2.157199999999999918e+01,-1.678604999696986511e-01,-2.078807780752041923e-01,-1.990197706799285982e-01,2.665398081095199379e-01
2.158399999999999963e+01,-1.723640895895795500e-01,-2.180340438417043558e-01,-1.928706630508551512e-01,2.647064573766022555e-01
2.159600000000000009e+01,-1.787709036488270009e-01,-2.279716690362138809e-01,-1.869303891796609829e-01,2.619526097741875503e-01
2.160800000000000054e+01,-1.870230093385546188e-01,-2.374473972726579563e-01,-1.813133706540567547e-01,2.583205849860367720e-01
2.162000000000000099e+01,-1.970300869123489118e-01,-2.462299608194860601e-01,-1.761249522293993619e-01,2.538671387654289346e-01
2.163200000000000145e+01,-2.086729872080850812e-01,-2.541075356304011712e-01,-1.714595216021374269e-01,2.486615108780772798e-01
2.164399999999999835e+01,-2.218079003735214660e-01,-2.608913585451482220e-01,-1.673990608123556711e-01,2.427832381899927283e-01
2.165599999999999881e+01,-2.362709348102620954e-01,-2.664184355167095175e-01,-1.640121499708070696e-01,2.363198315226323898e-01
2.166799999999999926e+01,-2.518829040179885181e-01,-2.705533187280104723e-01,-1.613534210161469418e-01,2.293644124154176622e-01
2.167999999999999972e+01,-2.684541295744720668e-01,-2.731889756722466478e-01,-1.594634387483086224e-01,2.220133981519436805e-01
2.169200000000000017e+01,-2.857890887667714486e-01,-2.742468119552065042e-01,-1.583689695858946089e-01,2.143643115022834666e-01
2.170400000000000063e+01,-3.036907627149607602e-01,-2.736759399224679701e-01,-1.580835860311871066e-01,2.065137769733453310e-01
2.171600000000000108e+01,-3.219645723390009984e-01,-2.714518063601195630e-01,-1.586085469128404868e-01,1.985557493284008101e-01
2.172800000000000153e+01,-3.404218224775426571e-01,-2.675743044840084295e-01,-1.599338899309143136e-01,1.905800040066328582e-01
2.173999999999999844e+01,-3.588826064972507335e-01,-2.620654989574322524e-01,-1.620396733585794391e-01,1.826709039024335401e-01
2.175199999999999889e+01,-3.771781529653089882e-01,-2.549670890110715682e-01,-1.648973072607360923e-01,1.749064435419771524e-01
2.176399999999999935e+01,-3.951526211004279254e-01,-2.463377254291416740e-01,-1.684709204718173592e-01,1.673575605269065347e-01
2.177599999999999980e+01,-4.126643720371495627e-01,-2.362502838570680053e-01,-1.727187170230284619e-01,1.600876954397408292e-01
2.178800000000000026e+01,-4.295867582010048924e-01,-2.247891811597022560e-01,-1.775942839738427759e-01,1.531525752335538837e-01
2.180000000000000071e+01,-4.458084834686435460e-01,-2.120478048157432294e-01,-1.830478210432508190e-01,1.466001912941374552e-01
2.181200000000000117e+01,-4.612335927387138934e-01,-1.981261087243113006e-01,-1.890272705464091652e-01,1.404709415814825446e-01
2.182400000000000162e+01,-4.757811517108665456e-01,-1.831284131961420647e-01,-1.954793335556663791e-01,1.347979061759055908e-01
2.183599999999999852e+01,-4.893846767937996556e-01,-1.671614329028788537e-01,-2.023503646878013762e-01,1.296072267961928814e-01
2.184799999999999898e+01,-5.019913718805391056e-01,-1.503325445151046102e-01,-2.095871433528711525e-01,1.249185630564607907e-01
2.185999999999999943e+01,-5.135612239354299113e-01,-1.327482958186300965e-01,-2.171375236585724455e-01,1.207456010531658824e-01
