Frequency, Re(SMin1Min1), Im(SMin1Min1), Re(SMax1Min1), Im(SMax1Min1)
2.000000000000000000e+01,-3.091377955871867367e-01,-5.677499040961702104e-01,-2.059415225869066501e-01,-1.903795843419760214e-02
2.001200000000000045e+01,-3.213054712178667338e-01,-5.567353967913076795e-01,-2.122858711791633379e-01,-2.156751236186935788e-02
2.002400000000000091e+01,-3.331745827748410216e-01,-5.453044132720412662e-01,-2.187543986099927673e-01,-2.388915296940881047e-02
2.003600000000000136e+01,-3.447264313421801174e-01,-5.334643320467454819e-01,-2.253404001074499341e-01,-2.599720232487024232e-02
2.004799999999999827e+01,-3.559424223431541523e-01,-5.212234632508024879e-01,-2.320369085137730381e-01,-2.788620449497405257e-02
2.005999999999999872e+01,-3.668041164718108260e-01,-5.085910544021681190e-01,-2.388367026354192291e-01,-2.955093768862268599e-02
2.007199999999999918e+01,-3.772932815357002423e-01,-4.955772929735783872e-01,-2.457323161953201274e-01,-3.098642596905847382e-02
2.008399999999999963e+01,-3.873919449765558243e-01,-4.821933056820216779e-01,-2.527160473564332710e-01,-3.218795049803756941e-02
2.009600000000000009e+01,-3.970824468225241377e-01,-4.684511544157614060e-01,-2.597799687824832171e-01,-3.315106027800004268e-02
2.010800000000000054e+01,-4.063474928187628676e-01,-4.543638287411692067e-01,-2.669159381994006264e-01,-3.387158236091396962e-02
2.012000000000000099e+01,-4.151702074735288406e-01,-4.399452349535251661e-01,-2.741156094182667369e-01,-3.434563149565932061e-02
2.013200000000000145e+01,-4.235341867539605953e-01,-4.252101816605201590e-01,-2.813704437785446433e-01,-3.456961918900429420e-02
2.014399999999999835e+01,-4.314235501630231950e-01,-4.101743619097170668e-01,-2.886717219683330726e-01,-3.454026215879055228e-02
2.015599999999999881e+01,-4.388229919285319691e-01,-3.948543318981447836e-01,-2.960105561768815452e-01,-3.425459016153899888e-02
2.016799999999999926e+01,-4.457178310389664500e-01,-3.792674863247298966e-01,-3.033779025331851953e-01,-3.370995318067588481e-02
2.017999999999999972e+01,-4.520940598646848718e-01,-3.634320304723069328e-01,-3.107645737836529642e-01,-3.290402796535516622e-02
2.019200000000000017e+01,-4.579383911128850904e-01,-3.473669491290364841e-01,-3.181612521610266975e-01,-3.183482391412103402e-02
2.020400000000000063e+01,-4.632383028753933596e-01,-3.310919724829852751e-01,-3.255585023967027536e-01,-3.050068830163822631e-02
2.021600000000000108e+01,-4.679820815381487420e-01,-3.146275391450419900e-01,-3.329467848284384246e-01,-2.890031085100173286e-02
2.022800000000000153e+01,-4.721588623420944764e-01,-2.979947564764623968e-01,-3.403164685561690939e-01,-2.703272765833723834e-02
2.023999999999999844e+01,-4.757586673989495640e-01,-2.812153584148414098e-01,-3.476578445991974076e-01,-2.489732448048903243e-02
2.025199999999999889e+01,-4.787724409856323748e-01,-2.643116610123195098e-01,-3.549611390095105401e-01,-2.249383940085575295e-02
2.026399999999999935e+01,-4.811920819656100301e-01,-2.473065159093665588e-01,-3.622165258972648294e-01,-1.982236489238215979e-02
2.027599999999999980e+01,-4.830104732042877491e-01,-2.302232619838793515e-01,-3.694141403266354984e-01,-1.688334930069295900e-02
2.028800000000000026e+01,-4.842215078743786205e-01,-2.130856754227260508e-01,-3.765440910423552001e-01,-1.367759777415785555e-02
2.030000000000000071e+01,-4.848201125673757828e-01,-1.959179184682989239e-01,-3.835964729899118963e-01,-1.020627267132364832e-02
2.031200000000000117e+01,-4.848022671599222511e-01,-1.787444870973848576e-01,-3.905613795953613576e-01,-6.470893479552161133e-03
2.032400000000000162e+01,-4.841650214021937515e-01,-1.615901578885627354e-01,-3.974289147739032968e-01,-2.473336281995763570e-03
2.033599999999999852e+01,-4.829065082276647880e-01,-1.444799343313211970e-01,-4.041892046399716554e-01,1.784167187021890944e-03
2.034799999999999898e+01,-4.810259538051855910e-01,-1.274389928235776237e-01,-4.108324088954238840e-01,6.299030855403731956e-03
2.035999999999999943e+01,-4.785236843797165962e-01,-1.104926285937174874e-01,-4.173487318764897980e-01,1.106831595016888152e-02
2.037199999999999989e+01,-4.754011299707602833e-01,-9.366620177078363585e-02,-4.237284332445535595e-01,1.608873291043482270e-02
2.038400000000000034e+01,-4.716608250176375083e-01,-7.698508380758682657e-02,-4.299618383104105157e-01,2.135664352724386122e-02
2.039600000000000080e+01,-4.673064060794894781e-01,-6.047460444571776950e-02,-4.360393479864220767e-01,2.686806325947718385e-02
2.040800000000000125e+01,-4.623426067128204031e-01,-4.415999938218111848e-02,-4.419514483660556547e-01,3.261866367394444105e-02
2.042000000000000171e+01,-4.567752496618970870e-01,-2.806635877713824223e-02,-4.476887199354415148e-01,3.860377495700733491e-02
2.043199999999999861e+01,-4.506112365001215814e-01,-1.221857670966599273e-02,-4.532418464269665770e-01,4.481838844456335208e-02
2.044399999999999906e+01,-4.438585348726392654e-01,3.358698344254940765e-03,-4.586016233303866763e-01,5.125715911732896257e-02
2.045599999999999952e+01,-4.365261634732694462e-01,1.864111196836792939e-02,-4.637589660825890969e-01,5.791440800862266564e-02
2.046799999999999997e+01,-4.286241748914340066e-01,3.360465119305518916e-02,-4.687049179629641515e-01,6.478412447274099761e-02
2.048000000000000043e+01,-4.201636364341777008e-01,4.822569084870371309e-02,-4.734306577270545602e-01,7.185996826314801356e-02
2.049200000000000088e+01,-4.111566090095769566e-01,6.248103895634540828e-02,-4.779275070172422923e-01,7.913527137150680457e-02
2.050400000000000134e+01,-4.016161241128242132e-01,7.634798127353084607e-02,-4.821869375951739478e-01,8.660303958057970208e-02
2.051599999999999824e+01,-3.915561588974894591e-01,8.980432515059569298e-02,-4.862005784467652303e-01,9.425595368676004115e-02
2.052799999999999869e+01,-3.809916092547022126e-01,1.028284428816095691e-01,-4.899602228166752282e-01,1.020863703511346032e-01
2.053999999999999915e+01,-3.699382607168120174e-01,1.153993147914069012e-01,-4.934578352354316855e-01,1.100863225415650987e-01
2.055199999999999960e+01,-3.584127568956707033e-01,1.274965722960786085e-01,-4.966855586084561458e-01,1.182475195326381096e-01
2.056400000000000006e+01,-3.464325650096389819e-01,1.391005412119612761e-01,-4.996357214424474447e-01,1.265613464351415529e-01
2.057600000000000051e+01,-3.340159378734846030e-01,1.501922855620262953e-01,-5.023008452907749000e-01,1.350188632321118465e-01
2.058800000000000097e+01,-3.211818714894679183e-01,1.607536521065682789e-01,-5.046736525055141032e-01,1.436108033048406896e-01
2.060000000000000142e+01,-3.079500570849936780e-01,1.707673157200198244e-01,-5.067470743898561114e-01,1.523275714389200897e-01
2.061199999999999832e+01,-2.943408261164812689e-01,1.802168256030843019e-01,-5.085142598504186484e-01,1.611592413082225395e-01
2.062399999999999878e+01,-2.803750863028585116e-01,1.890866520342766310e-01,-5.099685846547324930e-01,1.700955524431299881e-01
2.063599999999999923e+01,-2.660742462770991912e-01,1.973622329851375812e-01,-5.111036614045303406e-01,1.791259066986440052e-01
2.064799999999999969e+01,-2.514601258598133104e-01,2.050300193019924944e-01,-5.119133503407364838e-01,1.882393642485312157e-01
2.066000000000000014e+01,-2.365548483066942931e-01,2.120775162032739192e-01,-5.123917711007398568e-01,1.974246391427718073e-01
2.067200000000000060e+01,-2.213807102414734607e-01,2.184933175704742159e-01,-5.125333155527986850e-01,2.066700944781969251e-01
2.068400000000000105e+01,-2.059600243945527431e-01,2.242671275316285295e-01,-5.123326618361893070e-01,2.159637372456524873e-01
2.069600000000000151e+01,-1.903149299132120553e-01,2.293897611863482400e-01,-5.117847897385429112e-01,2.252932129319285270e-01
2.070799999999999841e+01,-1.744671652123717109e-01,2.338531126225543433e-01,-5.108849975440310498e-01,2.346457999706300368e-01
2.071999999999999886e+01,-1.584377995708263209e-01,2.376500734535124670e-01,-5.096289204869128842e-01,2.440084041537225745e-01
2.073199999999999932e+01,-1.422469227203341513e-01,2.407743787945093861e-01,-5.080125509448305543e-01,2.533675531340964238e-01
2.074399999999999977e+01,-1.259132977888619276e-01,2.432203499465265539e-01,-5.060322605044140776e-01,2.627093911697747641e-01
2.075600000000000023e+01,-1.094539937621072101e-01,2.449824946572222717e-01,-5.036848240282638667e-01,2.720196742819321889e-01
2.076800000000000068e+01,-9.288403140411941039e-02,2.460549182276775548e-01,-5.009674458468317271e-01,2.812837660218530655e-01
2.078000000000000114e+01,-7.621610377867403530e-02,2.464304952634130963e-01,-4.978777881908544867e-01,2.904866340663062041e-01
2.079200000000000159e+01,-5.946047092615713153e-02,2.460997585515391772e-01,-4.944140019692666588e-01,2.996128478863904210e-01
2.080399999999999849e+01,-4.262517726207580571e-02,2.450494880195087377e-01,-4.905747599839052064e-01,3.086465777616146378e-01
2.081599999999999895e+01,-2.571679304313835915e-02,2.432610423076032313e-01,-4.863592926550155404e-01,3.175715954386519879e-01
2.082799999999999940e+01,-8.741919783522440410e-03,2.407085823023835114e-01,-4.817674263104748111e-01,3.263712767624862288e-01
2.083999999999999986e+01,8.290310672772967931e-03,2.373574970466064693e-01,-4.767996240660742902e-01,3.350286066364355775e-01
2.085200000000000031e+01,2.536462391908618497e-02,2.331635416468880728e-01,-4.714570292938513041e-01,3.435261866960824251e-01
2.086400000000000077e+01,4.245502186650108173e-02,2.280733732591403162e-01,-4.657415116398255783e-01,3.518462461101642402e-01
2.087600000000000122e+01,5.951981108982865032e-02,2.220272055707835646e-01,-4.596557155110884696e-01,3.599706559482987456e-01
2.088800000000000168e+01,7.649734128776233821e-02,2.149640391321018251e-01,-4.532031109046777972e-01,3.678809475801514406e-01
2.089999999999999858e+01,9.330393763322095135e-02,2.068292631102359447e-01,-4.463880463966822809e-01,3.755583355926742084e-01
2.091199999999999903e+01,1.098354273011371840e-01,1.975834597636618173e-01,-4.392158040492438742e-01,3.829837457299785641e-01
2.092399999999999949e+01,1.259728771448487550e-01,1.872103605478552535e-01,-4.316926559253801976e-01,3.901378483734198044e-01
2.093599999999999994e+01,1.415918041831236429e-01,1.757216547646601734e-01,-4.238259218269557760e-01,3.970010980861012340e-01
2.094800000000000040e+01,1.565727740903938292e-01,1.631570892237973192e-01,-4.156240277895462687e-01,4.035537797446527852e-01
2.096000000000000085e+01,1.708107057038986132e-01,1.495798105835933478e-01,-4.070965647800545151e-01,4.097760617706394659e-01
2.097200000000000131e+01,1.842207188157470032e-01,1.350684555632455652e-01,-3.982543469491548471e-01,4.156480569520757951e-01
2.098400000000000176e+01,1.967396947228979842e-01,1.197083151570118575e-01,-3.891094686919532308e-01,4.211498913110837128e-01
2.099599999999999866e+01,2.083241285440627089e-01,1.035837101831762058e-01,-3.796753596679715570e-01,4.262617814244014647e-01
2.100799999999999912e+01,2.189457082146618327e-01,8.677283020033677019e-02,-3.699668368273011376e-01,4.309641205377946482e-01
2.101999999999999957e+01,2.285861801640791391e-01,6.934527447551465384e-02,-3.600001523858661345e-01,4.352375737317703552e-01
2.103200000000000003e+01,2.372326741380195725e-01,5.136181805454351906e-02,-3.497930365912461648e-01,4.390631822924898064e-01
2.104400000000000048e+01,2.448741055704299063e-01,3.287563231535953201e-02,-3.393647340251148559e-01,4.424224773174300629e-01
2.105600000000000094e+01,2.514988051297087357e-01,1.393422067691941005e-02,-3.287360321022468890e-01,4.452976024394678101e-01
2.106800000000000139e+01,2.570932384487092937e-01,-5.418479719066570527e-03,-3.179292803531368894e-01,4.476714453846042385e-01
2.107999999999999829e+01,2.616415599221713073e-01,-2.514016236456693282e-02,-3.069683990222339398e-01,4.495277778886283548e-01
2.109199999999999875e+01,2.651257357291380012e-01,-4.518853818757710694e-02,-2.958788754812340938e-01,4.508514032868517485e-01
2.110399999999999920e+01,2.675260153831726107e-01,-6.552008558232862157e-02,-2.846877469518278025e-01,4.516283108611789388e-01
2.111599999999999966e+01,2.688215903743523816e-01,-8.608914111101993727e-02,-2.734235680596119877e-01,4.518458357829281957e-01
2.112800000000000011e+01,2.689913326617724976e-01,-1.068472815270974097e-01,-2.621163618058479083e-01,4.514928232315679191e-01
2.114000000000000057e+01,2.680145474545378437e-01,-1.277429420239049040e-01,-2.507975526505945574e-01,4.505597950054779921e-01
2.115200000000000102e+01,2.658717038744562444e-01,-1.487212210085116226e-01,-2.394998805536426301e-01,4.490391166757973784e-01
2.116400000000000148e+01,2.625451253498192195e-01,-1.697238306509488981e-01,-2.282572950215678020e-01,4.469251630774820905e-01
2.117599999999999838e+01,2.580196322985396362e-01,-1.906891621712379081e-01,-2.171048284620394342e-01,4.442144796909218152e-01
2.118799999999999883e+01,2.522831353163209056e-01,-2.115524431285993046e-01,-2.060784484502561631e-01,4.409059372530551024e-01
2.119999999999999929e+01,2.453271792730293277e-01,-2.322459706233916954e-01,-1.952148888660457104e-01,4.370008767586119891e-01
2.121199999999999974e+01,2.371474393218180599e-01,-2.526994091282347421e-01,-1.845514602591321052e-01,4.325032418820362601e-01
2.122400000000000020e+01,2.277441692601450407e-01,-2.728401450269530848e-01,-1.741258402393635885e-01,4.274196957774911709e-01
2.123600000000000065e+01,2.171226018016200188e-01,-2.925936920013552656e-01,-1.639758451589949095e-01,4.217597192104672876e-01
2.124800000000000111e+01,2.052932992421691583e-01,-3.118841425544332524e-01,-1.541391848450519853e-01,4.155356870465789498e-01
2.126000000000000156e+01,1.922724521591075708e-01,-3.306346613537579637e-01,-1.446532026376733671e-01,4.087629202803441109e-01
2.127199999999999847e+01,1.780821230173049441e-01,-3.487680160311865118e-01,-1.355546034804999966e-01,4.014597110318489093e-01
2.128399999999999892e+01,1.627504311541089488e-01,-3.662071405869279928e-01,-1.268791732738823175e-01,3.936473182763200462e-01
2.129599999999999937e+01,1.463116754354802096e-01,-3.828757259036028038e-01,-1.186614931240121545e-01,3.853499324965349304e-01
2.130799999999999983e+01,1.288063910331804784e-01,-3.986988310812484282e-01,-1.109346524818701635e-01,3.765946079580476669e-01
2.132000000000000028e+01,1.102813371755700378e-01,-4.136035084661119909e-01,-1.037299654482866096e-01,3.674111618911514165e-01
2.133200000000000074e+01,9.078941343452892609e-02,-4.275194344790156364e-01,-9.707669470887399232e-02,3.578320405090915646e-01
2.134400000000000119e+01,7.038950300141068317e-02,-4.403795376530002526e-01,-9.100178764139932319e-02,3.478921524821673161e-01
2.135600000000000165e+01,4.914624256541876013e-02,-4.521206147728374924e-01,-8.552962909798765556e-02,3.376286712021105418e-01
2.136799999999999855e+01,2.712971967535882795e-02,-4.626839256805119205e-01,-8.068181519902377363e-02,3.270808078876508707e-01
2.137999999999999901e+01,4.415099868355381110e-03,-4.720157572219743081e-01,-7.647695218276195916e-02,3.162895582767439873e-01
2.139199999999999946e+01,-1.891781268411650563e-02,-4.800679469945954847e-01,-7.293048393842138655e-02,3.052974262987691589e-01
2.140399999999999991e+01,-4.278507579628090113e-02,-4.867983579865562960e-01,-7.005455131884991138e-02,2.941481286972140174e-01
2.141600000000000037e+01,-6.709916453350858734e-02,-4.921712959408959254e-01,-6.785788569558877381e-02,2.828862850580933785e-01
2.142800000000000082e+01,-9.176957319683436143e-02,-4.961578622543948436e-01,-6.634573850239820769e-02,2.715570980724374972e-01
2.144000000000000128e+01,-1.167034549674901139e-01,-4.987362364617026755e-01,-6.551984773452289301e-02,2.602060291078565069e-01
2.145199999999999818e+01,-1.418062892359851779e-01,-4.998918837965543038e-01,-6.537844155469416108e-02,2.488784742740461353e-01
2.146399999999999864e+01,-1.669825659736318690e-01,-4.996176849288269661e-01,-6.591627832928029229e-02,2.376194461354221021e-01
2.147599999999999909e+01,-1.921364761264679755e-01,-4.979139867035433653e-01,-6.712472160486776529e-02,2.264732660513526785e-01
2.148799999999999955e+01,-2.171725969388316746e-01,-4.947885744934740204e-01,-6.899184776243263983e-02,2.154832718164265970e-01
2.150000000000000000e+01,-2.419965613528879400e-01,-4.902565685614455049e-01,-7.150258337576777257e-02,2.046915448408732630e-01
2.151200000000000045e+01,-2.665157011775646789e-01,-4.843402485628531262e-01,-7.463886867270011494e-02,1.941386605690313405e-01
2.152400000000000091e+01,-2.906396545603470716e-01,-4.770688119388943882e-01,-7.837984296728278677e-02,1.838634651996880476e-01
2.153600000000000136e+01,-3.142809294008262477e-01,-4.684780734146622438e-01,-8.270204750949472494e-02,1.739028810657030633e-01
2.154800000000000182e+01,-3.373554156839226881e-01,-4.586101140797644304e-01,-8.757964089206043967e-02,1.642917422717434239e-01
2.155999999999999872e+01,-3.597828412439539880e-01,-4.475128895622229597e-01,-9.298462196330203877e-02,1.550626613976474333e-01
2.157199999999999918e+01,-3.814871671546752330e-01,-4.352398075839132852e-01,-9.888705511770522205e-02,1.462459272680944333e-01
2.158399999999999963e+01,-4.023969207396726477e-01,-4.218492857004496055e-01,-1.052552928660537152e-01,1.378694329812220898e-01
2.159600000000000009e+01,-4.224454660656656868e-01,-4.074043002690449500e-01,-1.120561907165164572e-01,1.299586325892426453e-01
2.160800000000000054e+01,-4.415712136951340794e-01,-3.919719376600688254e-01,-1.192553096177458444e-01,1.225365240384066329e-01
2.162000000000000099e+01,-4.597177734026748896e-01,-3.756229584403668609e-01,-1.268171015170976579e-01,1.156236552031563170e-01
2.163200000000000145e+01,-4.768340554902384953e-01,-3.584313847053172686e-01,-1.347050739662535856e-01,1.092381490844494124e-01
2.164399999999999835e+01,-4.928743282615642429e-01,-3.404741199339856306e-01,-1.428819301630692429e-01,1.033957434738400072e-01
2.165599999999999881e+01,-5.077982411395025597e-01,-3.218306096733122845e-01,-1.513096813603609370e-01,9.810983959761471196e-02
2.166799999999999926e+01,-5.215708248387868062e-01,-3.025825500025474679e-01,-1.599497292183579555e-01,9.339155343080823846e-02
2.167999999999999972e+01,-5.341624819541320734e-01,-2.828136490457215935e-01,-1.687629164610978671e-01,8.924976249041244314e-02
2.169200000000000017e+01,-5.455489832937032713e-01,-2.626094447159506018e-01,-1.777095451689937877e-01,8.569113996572966241e-02
2.170400000000000063e+01,-5.557114872739846723e-01,-2.420571792884718132e-01,-1.867493632738248810e-01,8.272016701579623654e-02
2.171600000000000108e+01,-5.646366016549048128e-01,-2.212457281654608143e-01,-1.958415214173623575e-01,8.033911297222597059e-02
2.172800000000000153e+01,-5.723165087458863542e-01,-2.002655761314631466e-01,-2.049445044184468878e-01,7.854797207469689513e-02
2.173999999999999844e+01,-5.787491767875679871e-01,-1.792088292801563010e-01,-2.140160443215382569e-01,7.734434432874469356e-02
2.175199999999999889e+01,-5.839386812298633656e-01,-1.581692443697378381e-01,-2.230130255515078153e-01,7.672324727760622409e-02
2.176399999999999935e+01,-5.878956596451534455e-01,-1.372422493829209000e-01,-2.318913972614283503e-01,7.667684519129346066e-02
2.177599999999999980e+01,-5.906379223865583228e-01,-1.165249193251253895e-01,-2.406061136962630576e-01,7.719408280670678191e-02
2.178800000000000026e+01,-5.921912369156639988e-01,-9.611585972260094923e-02,-2.491111303907437291e-01,7.826021289071420639e-02
2.180000000000000071e+01,-5.925902957782422931e-01,-7.611493707889976923e-02,-2.573594921921935619e-01,7.985621134123334353e-02
2.181200000000000117e+01,-5.918798649998583405e-01,-5.662278137735059919e-02,-2.653035580637326807e-01,8.195808130186885143e-02
2.182400000000000162e+01,-5.901160895041307475e-01,-3.773997195369100527e-02,-2.728954165095030526e-01,8.453606002047238388e-02
2.183599999999999852e+01,-5.873679033350750478e-01,-1.956580711611510467e-02,-2.800875526890659883e-01,8.755376012171262046e-02
2.184799999999999898e+01,-5.837184537616816327e-01,-2.196553490214176070e-03,-2.868338313292831954e-01,9.096730148206287614e-02
2.185999999999999943e+01,-5.792663997101135109e-01,1.427692152615272179e-02,-2.930908547838815825e-01,9.472452106058457111e-02
