Frequency, Re(SMin1Min1), Im(SMin1Min1), Re(SMax1Min1), Im(SMax1Min1)
2.000000000000000000e+01,1.949529941976475833e-02,3.492819931070348383e-01,-6.004771618981138426e-01,2.951061314955308879e-01
2.001200000000000045e+01,3.236598852918180086e-02,3.496852199326308530e-01,-5.975456337142747154e-01,3.023604081011895262e-01
2.002400000000000091e+01,4.524223241152121322e-02,3.497147292880462555e-01,-5.944580894470306021e-01,3.095515796289459720e-01
2.003600000000000136e+01,5.811386080649633828e-02,3.493702659097446261e-01,-5.912157845897871855e-01,3.166760557824095379e-01
2.004799999999999827e+01,7.097074602702287127e-02,3.486518270233521788e-01,-5.878200378796676340e-01,3.237302809738822340e-01
2.005999999999999872e+01,8.380280799057489294e-02,3.475596550840751586e-01,-5.842722290325891299e-01,3.307107340857666222e-01
2.007199999999999918e+01,9.660001857391128932e-02,3.460942304691201343e-01,-5.805737965707172821e-01,3.376139280497798545e-01
2.008399999999999963e+01,1.093524052950039099e-01,3.442562641702439086e-01,-5.767262357537094042e-01,3.444364092489636819e-01
2.009600000000000009e+01,1.220500543284888800e-01,3.420466905319171635e-01,-5.727310966252282531e-01,3.511747567478885057e-01
2.010800000000000054e+01,1.346831128632970664e-01,3.394666600814138513e-01,-5.685899821859029535e-01,3.578255813569987676e-01
2.012000000000000099e+01,1.472417908133583364e-01,3.365175324943797674e-01,-5.643045467036328366e-01,3.643855245373336382e-01
2.013200000000000145e+01,1.597163618946002561e-01,3.332008697398510244e-01,-5.598764941719008847e-01,3.708512571521989654e-01
2.014399999999999835e+01,1.720971640832831828e-01,3.295184294475219100e-01,-5.553075769272123319e-01,3.772194780732534558e-01
2.015599999999999881e+01,1.843745994723633985e-01,3.254721585372938319e-01,-5.505995944352828353e-01,3.834869126479639179e-01
2.016799999999999926e+01,1.965391335450819288e-01,3.210641871524396174e-01,-5.457543922569259021e-01,3.896503110366256184e-01
2.017999999999999972e+01,2.085812938847788622e-01,3.162968229347624671e-01,-5.407738612035791759e-01,3.957064464270619863e-01
2.019200000000000017e+01,2.204916683448617520e-01,3.111725456799553369e-01,-5.356599366924317263e-01,4.016521131355548224e-01
2.020400000000000063e+01,2.322609026997949355e-01,3.056940024104279341e-01,-5.304145983112001916e-01,4.074841246029592412e-01
2.021600000000000108e+01,2.438796978029995899e-01,2.998640029006888197e-01,-5.250398696023721445e-01,4.131993112953771252e-01
2.022800000000000153e+01,2.553388062769593181e-01,2.936855156916419740e-01,-5.195378180770332532e-01,4.187945185191250252e-01
2.023999999999999844e+01,2.666290287630015965e-01,2.871616646271482609e-01,-5.139105554675830190e-01,4.242666041601187987e-01
2.025199999999999889e+01,2.777412097583680795e-01,2.802957259460214234e-01,-5.081602382299941212e-01,4.296124363584763461e-01
2.026399999999999935e+01,2.886662330701811330e-01,2.730911259640186328e-01,-5.022890683044246574e-01,4.348288911290061343e-01
2.027599999999999980e+01,2.993950169166975095e-01,2.655514393755402658e-01,-4.962992941453551188e-01,4.399128499398646808e-01
2.028800000000000026e+01,3.099185087080085221e-01,2.576803882091034947e-01,-4.901932120302181506e-01,4.448611972608019216e-01
2.030000000000000071e+01,3.202276795383156016e-01,2.494818414662417494e-01,-4.839731676571662478e-01,4.496708180942700639e-01
2.031200000000000117e+01,3.303135184249610945e-01,2.409598154761388167e-01,-4.776415580423979956e-01,4.543385955028387824e-01
2.032400000000000162e+01,3.401670263281657003e-01,2.321184749964060046e-01,-4.712008337267483693e-01,4.588614081465868799e-01
2.033599999999999852e+01,3.497792099913459851e-01,2.229621350904472110e-01,-4.646535013029756689e-01,4.632361278462110432e-01
2.034799999999999898e+01,3.591410756369744495e-01,2.134952638130972469e-01,-4.580021262738138144e-01,4.674596171870304961e-01
2.035999999999999943e+01,3.682436225614544312e-01,2.037224857348204632e-01,-4.512493362519174323e-01,4.715287271810784109e-01
2.037199999999999989e+01,3.770778366696370121e-01,1.936485863362324700e-01,-4.443978245128818449e-01,4.754402950051724308e-01
2.038400000000000034e+01,3.856346839942894622e-01,1.832785173037351500e-01,-4.374503539125749185e-01,4.791911418338561379e-01
2.039600000000000080e+01,3.939051042461711449e-01,1.726174027588474880e-01,-4.304097611798697320e-01,4.827780707877381006e-01
2.040800000000000125e+01,4.018800044458751830e-01,1.616705464521221713e-01,-4.232789615969955732e-01,4.861978650190838525e-01
2.042000000000000171e+01,4.095502526878973537e-01,1.504434399561841995e-01,-4.160609540787069127e-01,4.894472859578223312e-01
2.043199999999999861e+01,4.169066720938500725e-01,1.389417718889845998e-01,-4.087588266621938193e-01,4.925230717432280692e-01
2.044399999999999906e+01,4.239400350135380524e-01,1.271714382017390954e-01,-4.013757624197418772e-01,4.954219358681774543e-01
2.045599999999999952e+01,4.306410575368928018e-01,1.151385535658574211e-01,-3.939150458056886461e-01,4.981405660648111078e-01
2.046799999999999997e+01,4.370003943844114613e-01,1.028494638917318710e-01,-3.863800694496535848e-01,5.006756234632324665e-01
2.048000000000000043e+01,4.430086342487291051e-01,9.031076001517307494e-02,-3.787743414073558856e-01,5.030237420564355189e-01
2.049200000000000088e+01,4.486562956647779377e-01,7.752929258570352700e-02,-3.711014928803952895e-01,5.051815285082006390e-01
2.050400000000000134e+01,4.539338234926877380e-01,6.451218819092879864e-02,-3.633652864157082552e-01,5.071455623428627879e-01
2.051599999999999824e+01,4.588315861026624476e-01,5.126686675183929343e-02,-3.555696245948737899e-01,5.089123965594413157e-01
2.052799999999999869e+01,4.633398733603825148e-01,3.780106022263297894e-02,-3.477185592227165500e-01,5.104785587158295890e-01
2.053999999999999915e+01,4.674488955170642557e-01,2.412283262764427366e-02,-3.398163010236141535e-01,5.118405525323347360e-01
2.055199999999999960e+01,4.711487831177906815e-01,1.024060146782162020e-02,-3.318672298526085251e-01,5.129948600679680171e-01
2.056400000000000006e+01,4.744295880513144659e-01,-3.836839474473151615e-03,-3.238759054269589321e-01,5.139379445269273150e-01
2.057600000000000051e+01,4.772812858739731157e-01,-1.810029590383200812e-02,-3.158470785818561777e-01,5.146662537574469010e-01
2.058800000000000097e+01,4.796937795512575264e-01,-3.254014732967343976e-02,-3.077857030517813230e-01,5.151762245100954818e-01
2.060000000000000142e+01,4.816569047729080122e-01,-4.714631991247643372e-02,-2.996969477761904366e-01,5.154642875275782243e-01
2.061199999999999832e+01,4.831604370096734824e-01,-6.190825782284771484e-02,-2.915862097251534779e-01,5.155268735439926253e-01
2.062399999999999878e+01,4.841941004938158932e-01,-7.681489310326908293e-02,-2.834591272366201453e-01,5.153604202773410803e-01
2.063599999999999923e+01,4.847475793202337124e-01,-9.185461402956049404e-02,-2.753215938527215356e-01,5.149613805052571935e-01
2.064799999999999969e+01,4.848105308808230984e-01,-1.070152319778335387e-01,-2.671797726372042714e-01,5.143262313208821768e-01
2.066000000000000014e+01,4.843726018617566798e-01,-1.222839468124722051e-01,-2.590401109501855315e-01,5.134514846726373483e-01
2.067200000000000060e+01,4.834234470513348314e-01,-1.376473108229944453e-01,-2.509093556494434996e-01,5.123336992992176819e-01
2.068400000000000105e+01,4.819527512252893553e-01,-1.530911912516267903e-01,-2.427945686794529268e-01,5.109694941788273104e-01
2.069600000000000151e+01,4.799502543968345858e-01,-1.686007314701383486e-01,-2.347031430001912111e-01,5.093555636198222603e-01
2.070799999999999841e+01,4.774057807399679221e-01,-1.841603108836182834e-01,-2.266428187971814556e-01,5.074886941283204278e-01
2.071999999999999886e+01,4.743092715175242780e-01,-1.997535036615672166e-01,-2.186216999022212448e-01,5.053657831969662340e-01
2.073199999999999932e+01,4.706508223684228720e-01,-2.153630364225742055e-01,-2.106482703404926049e-01,5.029838601678822130e-01
2.074399999999999977e+01,4.664207253334184955e-01,-2.309707450287051544e-01,-2.027314109040996848e-01,5.003401093318845527e-01
2.075600000000000023e+01,4.616095160240610284e-01,-2.465575306806097322e-01,-1.948804156344048910e-01,4.974318954348905253e-01
2.076800000000000068e+01,4.562080263646099421e-01,-2.621033155437738627e-01,-1.871050080753325351e-01,4.942567917713307502e-01
2.078000000000000114e+01,4.502074433637942574e-01,-2.775869981813890996e-01,-1.794153571371907285e-01,4.908126110531522701e-01
2.079200000000000159e+01,4.435993743986464399e-01,-2.929864091217403987e-01,-1.718220923847811055e-01,4.870974392507583239e-01
2.080399999999999849e+01,4.363759195189506612e-01,-3.082782669465585212e-01,-1.643363185347571087e-01,4.831096726101443695e-01
2.081599999999999895e+01,4.285297513054339702e-01,-3.234381353538667847e-01,-1.569696289145660340e-01,4.788480580564342115e-01
2.082799999999999940e+01,4.200542028377342030e-01,-3.384403817249213020e-01,-1.497341175989303497e-01,4.743117371993273435e-01
2.083999999999999986e+01,4.109433643499350586e-01,-3.532581378114637016e-01,-1.426423898987433658e-01,4.695002941591548407e-01
2.085200000000000031e+01,4.011921891676221152e-01,-3.678632632557674587e-01,-1.357075708316721752e-01,4.644138074330962929e-01
2.086400000000000077e+01,3.907966095338885615e-01,-3.822263127670458283e-01,-1.289433111525320474e-01,4.590529060190122745e-01
2.087600000000000122e+01,3.797536629383841400e-01,-3.963165078996311874e-01,-1.223637904647930236e-01,4.534188300083685785e-01
2.088800000000000168e+01,3.680616295608722943e-01,-4.101017145181500845e-01,-1.159837168713058891e-01,4.475134958492157922e-01
2.089999999999999858e+01,3.557201814297611953e-01,-4.235484271888734220e-01,-1.098183225523132051e-01,4.413395664637487781e-01
2.091199999999999903e+01,3.427305438709721264e-01,-4.366217619100121183e-01,-1.038833545817881704e-01,4.349005263810289401e-01
2.092399999999999949e+01,3.290956697799349850e-01,-4.492854587855526494e-01,-9.819506020779193711e-02,4.282007620134035686e-01
2.093599999999999994e+01,3.148204271889616379e-01,-4.615018964608020302e-01,-9.277016572973854902e-02,4.212456471615617648e-01
2.094800000000000040e+01,2.999118005138509124e-01,-4.732321203730083248e-01,-8.762584800355241454e-02,4.140416337773105693e-01
2.096000000000000085e+01,2.843791057464321592e-01,-4.844358871293013569e-01,-8.277969749585750714e-02,4.065963479412530446e-01
2.097200000000000131e+01,2.682342197027603459e-01,-4.950717276057375882e-01,-7.824967168988887500e-02,3.989186909217490862e-01
2.098400000000000176e+01,2.514918232359677486e-01,-5.050970316679714855e-01,-7.405403751932704282e-02,3.910189450688512092e-01
2.099599999999999866e+01,2.341696580648049142e-01,-5.144681577432266284e-01,-7.021130137315585718e-02,3.829088841567865331e-01
2.100799999999999912e+01,2.162887965464147799e-01,-5.231405708223050288e-01,-6.674012507610700695e-02,3.746018876172547141e-01
2.101999999999999957e+01,1.978739233186324331e-01,-5.310690128387438591e-01,-6.365922610799742976e-02,3.661130578970942517e-01
2.103200000000000003e+01,1.789536272409584516e-01,-5.382077097497324214e-01,-6.098726018439126068e-02,3.574593399215491574e-01
2.104400000000000048e+01,1.595607014566068904e-01,-5.445106200242258998e-01,-5.874268418708278316e-02,3.486596413411141571e-01
2.105600000000000094e+01,1.397324486617004813e-01,-5.499317296150676437e-01,-5.694359731018772824e-02,3.397349518787579625e-01
2.106800000000000139e+01,1.195109877821857458e-01,-5.544253988326653948e-01,-5.560755818876303436e-02,3.307084596657477449e-01
2.107999999999999829e+01,9.894355720207116678e-02,-5.579467668297338756e-01,-5.475137571090034350e-02,3.216056619509881087e-01
2.109199999999999875e+01,7.808280843585840847e-02,-5.604522196123804534e-01,-5.439087119957454475e-02,3.124544669813591469e-01
2.110399999999999920e+01,5.698708267185202681e-02,-5.618999275751388467e-01,-5.454060970565200589e-02,3.032852831721865594e-01
2.111599999999999966e+01,3.572066091095641577e-02,-5.622504584611252021e-01,-5.521359830458947432e-02,2.941310909109979832e-01
2.112800000000000011e+01,1.435397647384144618e-02,-5.614674713089522484e-01,-5.642094956782493093e-02,2.850274914618441957e-01
2.114000000000000057e+01,-7.036223558487440626e-03,-5.595184962808178453e-01,-5.817150882302886405e-02,2.760127264632333266e-01
2.115200000000000102e+01,-2.836678386337657815e-02,-5.563758041744307770e-01,-6.047144447160211767e-02,2.671276604491156226e-01
2.116400000000000148e+01,-4.954813192602814526e-02,-5.520173677855202410e-01,-6.332380154849079346e-02,2.584157176887725282e-01
2.117599999999999838e+01,-7.048437603723485545e-02,-5.464279149721824602e-01,-6.672801994894278499e-02,2.499227634707900381e-01
2.118799999999999883e+01,-9.107353457557762488e-02,-5.396000701251566500e-01,-7.067942037327097637e-02,2.416969188001779345e-01
2.119999999999999929e+01,-1.112079237578414148e-01,-5.315355766069201904e-01,-7.516866312132601535e-02,2.337882964115831630e-01
2.121199999999999974e+01,-1.307747336107054625e-01,-5.222465874230650673e-01,-8.018118746681977826e-02,2.262486451297660850e-01
2.122400000000000020e+01,-1.496568239210041840e-01,-5.117570047827204593e-01,-8.569664251133135568e-02,2.191308890712908297e-01
2.123600000000000065e+01,-1.677337729859986748e-01,-5.001038411791586258e-01,-9.168832418979579180e-02,2.124885481578526469e-01
2.124800000000000111e+01,-1.848832116316179164e-01,-4.873385651343982161e-01,-9.812263746763139061e-02,2.063750271243285639e-01
2.126000000000000156e+01,-2.009824726173177201e-01,-4.735283838720000804e-01,-1.049586076716500782e-01,2.008427619168893508e-01
2.127199999999999847e+01,-2.159105805304845083e-01,-4.587574031429760835e-01,-1.121474701896792853e-01,1.959422153859460836e-01
2.128399999999999892e+01,-2.295505988589355006e-01,-4.431275916876225018e-01,-1.196323732079318525e-01,1.917207188002102991e-01
2.129599999999999937e+01,-2.417923383784056079e-01,-4.267594651157072261e-01,-1.273482333477622963e-01,1.882211622452486521e-01
2.130799999999999983e+01,-2.525354136479091016e-01,-4.097923924181128830e-01,-1.352217884762490496e-01,1.854805456704483047e-01
2.132000000000000028e+01,-2.616926118252420053e-01,-3.923844193588177931e-01,-1.431718948917800605e-01,1.835284133438327969e-01
2.133200000000000074e+01,-2.691935101328949420e-01,-3.747114984926601666e-01,-1.511101166614444158e-01,1.823852077018420503e-01
2.134400000000000119e+01,-2.749882456336316672e-01,-3.569660176872784252e-01,-1.589416521253483039e-01,1.820605936949490355e-01
2.135600000000000165e+01,-2.790513048159232734e-01,-3.393545301386874380e-01,-1.665666354574951991e-01,1.825518210093197979e-01
2.136799999999999855e+01,-2.813851631179025703e-01,-3.220946112062879063e-01,-1.738818387465205229e-01,1.838422078195446896e-01
2.137999999999999901e+01,-2.820235692953984019e-01,-3.054108027257938507e-01,-1.807827816669197174e-01,1.858998443436373493e-01
2.139199999999999946e+01,-2.810342408782059431e-01,-2.895296545997275151e-01,-1.871662312828184793e-01,1.886766253263969240e-01
2.140399999999999991e+01,-2.785207200837330199e-01,-2.746739357297918738e-01,-1.929330444291683655e-01,1.921077252562357895e-01
2.141600000000000037e+01,-2.746231399957124730e-01,-2.610561590628422968e-01,-1.979912709657258019e-01,1.961116261555672646e-01
2.142800000000000082e+01,-2.695176736135853623e-01,-2.488716436637018470e-01,-2.022594005858044386e-01,2.005907930366009617e-01
2.144000000000000128e+01,-2.634144870874700062e-01,-2.382914129594552732e-01,-2.056696024068607742e-01,2.054330652484421260e-01
2.145199999999999818e+01,-2.565540940340207965e-01,-2.294552933921981952e-01,-2.081707796723038795e-01,2.105137929275305853e-01
2.146399999999999864e+01,-2.492021076844453398e-01,-2.224656215480154686e-01,-2.097312462215470408e-01,2.156986982902815986e-01
2.147599999999999909e+01,-2.416425050459809487e-01,-2.173819808717221969e-01,-2.103408311483359883e-01,2.208473851819791889e-01
2.148799999999999955e+01,-2.341696415870852255e-01,-2.142173641952913876e-01,-2.100122361701040330e-01,2.258173625121895900e-01
2.150000000000000000e+01,-2.270793725141380393e-01,-2.129360925271390204e-01,-2.087815074711279750e-01,2.304683946039307041e-01
2.151200000000000045e+01,-2.206597326420887961e-01,-2.134537163554386108e-01,-2.067075383015847811e-01,2.346669510328513175e-01
2.152400000000000091e+01,-2.151816875370631266e-01,-2.156389914815374231e-01,-2.038705857927860243e-01,2.382905063722589867e-01
2.153600000000000136e+01,-2.108904841112070050e-01,-2.193178706660210697e-01,-2.003698583452770410e-01,2.412314405218875246e-01
2.154800000000000182e+01,-2.079980950453701183e-01,-2.242793020058619080e-01,-1.963203002727782476e-01,2.434003141955985439e-01
2.155999999999999872e+01,-2.066771710002988927e-01,-2.302824924893415726e-01,-1.918487598344672251e-01,2.447283395690895424e-01
2.157199999999999918e+01,-2.070567968333791864e-01,-2.370651958384417113e-01,-1.870897684432246133e-01,2.451689278579099740e-01
2.158399999999999963e+01,-2.092202072859010442e-01,-2.443525279789939553e-01,-1.821811783304378429e-01,2.446982662991286639e-01
2.159600000000000009e+01,-2.132044707079488455e-01,-2.518658053428053378e-01,-1.772599021129428465e-01,2.433149482891836801e-01
2.160800000000000054e+01,-2.190020128992979098e-01,-2.593309381224422339e-01,-1.724579725947968933e-01,2.410387443809280106e-01
2.162000000000000099e+01,-2.265637407320373609e-01,-2.664859843194146705e-01,-1.678990994211456977e-01,2.379086522269589499e-01
2.163200000000000145e+01,-2.358034458909613329e-01,-2.730875689387951555e-01,-1.636958471766693513e-01,2.339803965867987001e-01
2.164399999999999835e+01,-2.466031264505109677e-01,-2.789159825263325954e-01,-1.599475039305529034e-01,2.293235651013917908e-01
2.165599999999999881e+01,-2.588188566852290262e-01,-2.837788817083976012e-01,-1.567386562045293974e-01,2.240185630223448798e-01
2.166799999999999926e+01,-2.722868581355697981e-01,-2.875136111920413295e-01,-1.541384406294692977e-01,2.181535536148236365e-01
2.167999999999999972e+01,-2.868294697727049036e-01,-2.899882448791817890e-01,-1.522004071404352288e-01,2.118215246903716875e-01
2.169200000000000017e+01,-3.022607735391537598e-01,-2.911014999602162812e-01,-1.509629046353546666e-01,2.051175900554963183e-01
2.170400000000000063e+01,-3.183916954792845311e-01,-2.907817118421499591e-01,-1.504498872601793547e-01,1.981366015697819394e-01
2.171600000000000108e+01,-3.350344653840963138e-01,-2.889850716827288557e-01,-1.506720364550767632e-01,1.909711161744495067e-01
2.172800000000000153e+01,-3.520063744580811949e-01,-2.856933257836719031e-01,-1.516280985393720915e-01,1.837097348772755989e-01
2.173999999999999844e+01,-3.691328179675035237e-01,-2.809111214271811097e-01,-1.533063476514013312e-01,1.764358084902490076e-01
2.175199999999999889e+01,-3.862496468354887913e-01,-2.746631611782480165e-01,-1.556860971262865323e-01,1.692264883095315475e-01
2.176399999999999935e+01,-4.032048787184139282e-01,-2.669913009909327117e-01,-1.587391970385469697e-01,1.621520886736745326e-01
2.177599999999999980e+01,-4.198598361593954831e-01,-2.579516996855915623e-01,-1.624314702228867591e-01,1.552757217978328053e-01
2.178800000000000026e+01,-4.360897884243329914e-01,-2.476121007281451014e-01,-1.667240526128772327e-01,1.486531626071620482e-01
2.180000000000000071e+01,-4.517841762573118203e-01,-2.360493031961318489e-01,-1.715746155933898787e-01,1.423329015698226174e-01
2.181200000000000117e+01,-4.668464967058803539e-01,-2.233468581593686109e-01,-1.769384579599942442e-01,1.363563458943325979e-01
2.182400000000000162e+01,-4.811939198586855371e-01,-2.095930097279252446e-01,-1.827694629688294825e-01,1.307581331535412061e-01
2.183599999999999852e+01,-4.947567020684517369e-01,-1.948788866559796606e-01,-1.890209219595530843e-01,1.255665258156200281e-01
2.184799999999999898e+01,-5.074774519955134178e-01,-1.792969403354098823e-01,-1.956462303543991255e-01,1.208038598323627477e-01
2.185999999999999943e+01,-5.193102973423237012e-01,-1.629396178379247662e-01,-2.025994647379202040e-01,1.164870250232083598e-01
