Frequency, Re(SMin1Min1), Im(SMin1Min1), Re(SMax1Min1), Im(SMax1Min1)
2.000000000000000000e+01,-1.634922198087701284e-01,2.918888073814518980e-01,-6.026871991101335757e-01,1.957809876352684664e-01
2.001200000000000045e+01,-1.501586540877213327e-01,2.977761024020998959e-01,-6.023178416561085768e-01,2.042207881854965767e-01
2.002400000000000091e+01,-1.366691278876199789e-01,3.032052943281023372e-01,-6.017203018077623700e-01,2.126531910140985193e-01
2.003600000000000136e+01,-1.230396798552269438e-01,3.081727285917104653e-01,-6.008954085842852511e-01,2.210708576201169395e-01
2.004799999999999827e+01,-1.092863055554295776e-01,3.126753820949332296e-01,-5.998442567052469920e-01,2.294665585287737897e-01
2.005999999999999872e+01,-9.542492865817406300e-02,3.167108459851277757e-01,-5.985681951584094218e-01,2.378331842295874632e-01
2.007199999999999918e+01,-8.147137408726848329e-02,3.202773070094829255e-01,-5.970688152896369560e-01,2.461637550620723314e-01
2.008399999999999963e+01,-6.744134318776888459e-02,3.233735276330507724e-01,-5.953479385066116070e-01,2.544514300350707581e-01
2.009600000000000009e+01,-5.335039095238187229e-02,3.259988251038053453e-01,-5.934076036867658166e-01,2.626895145735959058e-01
2.010800000000000054e+01,-3.921390533155515168e-02,3.281530496456519508e-01,-5.912500543778155260e-01,2.708714671946154673e-01
2.012000000000000099e+01,-2.504708863717947098e-02,3.298365619564961326e-01,-5.888777258766692002e-01,2.789909051202374979e-01
2.013200000000000145e+01,-1.086494103597433238e-02,3.310502101835067212e-01,-5.862932322693332754e-01,2.870416088432932722e-01
2.014399999999999835e+01,3.317753884144810424e-03,3.317953065418075553e-01,-5.834993535108253804e-01,2.950175256663044032e-01
2.015599999999999881e+01,1.748644150319833210e-02,3.320736037360617621e-01,-5.804990226200882342e-01,3.029127722402691347e-01
2.016799999999999926e+01,3.162680655275361408e-02,3.318872713370196736e-01,-5.772953130606247596e-01,3.107216361344926070e-01
2.017999999999999972e+01,4.572478154266274714e-02,3.312388722571309452e-01,-5.738914263729998355e-01,3.184385764730394697e-01
2.019200000000000017e+01,5.976655328778842508e-02,3.301313394609903251e-01,-5.702906801206687470e-01,3.260582236769709596e-01
2.020400000000000063e+01,7.373856759896528501e-02,3.285679530377925706e-01,-5.664964962057963405e-01,3.335753783546876461e-01
2.021600000000000108e+01,8.762753220861758952e-02,3.265523177542129507e-01,-5.625123896068909835e-01,3.409850093852249131e-01
2.022800000000000153e+01,1.014204180066517608e-01,3.240883411973943806e-01,-5.583419575852910377e-01,3.482822512413729643e-01
2.023999999999999844e+01,1.151044586664517061e-01,3.211802126090043119e-01,-5.539888694028064497e-01,3.554624006009911019e-01
2.025199999999999889e+01,1.286671487441328476e-01,3.178323825028392946e-01,-5.494568565882363975e-01,3.625209122959491825e-01
2.026399999999999935e+01,1.420962403365644833e-01,3.140495431501861279e-01,-5.447497037860908886e-01,3.694533946486851517e-01
2.027599999999999980e+01,1.553797383854901293e-01,3.098366100092086461e-01,-5.398712402165786184e-01,3.762556042466504436e-01
2.028800000000000026e+01,1.685058947158801779e-01,3.051987041671054279e-01,-5.348253317720311761e-01,3.829234402046984287e-01
2.030000000000000071e+01,1.814632008970709365e-01,3.001411358566771770e-01,-5.296158737711809117e-01,3.894529379650519263e-01
2.031200000000000117e+01,1.942403800149873905e-01,2.946693891023339784e-01,-5.242467843893311441e-01,3.958402626837506100e-01
2.032400000000000162e+01,2.068263774430458279e-01,2.887891075444832811e-01,-5.187219987793472153e-01,4.020817022515230654e-01
2.033599999999999852e+01,2.192103506982326366e-01,2.825060814857022207e-01,-5.130454638956033486e-01,4.081736599958908362e-01
2.034799999999999898e+01,2.313816584674504850e-01,2.758262361971078325e-01,-5.072211340305587957e-01,4.141126471100514683e-01
2.035999999999999943e+01,2.433298488874818810e-01,2.687556215189914610e-01,-5.012529670715298868e-01,4.198952748526675882e-01
2.037199999999999989e+01,2.550446471601980347e-01,2.613004027858985001e-01,-4.951449214833550938e-01,4.255182465613208120e-01
2.038400000000000034e+01,2.665159425825687212e-01,2.534668531031882832e-01,-4.889009540212284621e-01,4.309783495208690529e-01
2.039600000000000080e+01,2.777337750691166729e-01,2.452613469994293638e-01,-4.825250181767773983e-01,4.362724467265430284e-01
2.040800000000000125e+01,2.886883212424955492e-01,2.366903554769205220e-01,-4.760210633596126395e-01,4.413974685802228848e-01
2.042000000000000171e+01,2.993698801660033548e-01,2.277604424811448258e-01,-4.693930348160179067e-01,4.463504045570345080e-01
2.043199999999999861e+01,3.097688587901676893e-01,2.184782628089852186e-01,-4.626448742861947183e-01,4.511282948782320279e-01
2.044399999999999906e+01,3.198757571840665781e-01,2.088505614751063610e-01,-4.557805214014494233e-01,4.557282222253123960e-01
2.045599999999999952e+01,3.296811536207976401e-01,1.988841745560228913e-01,-4.488039158230341941e-01,4.601473035294415537e-01
2.046799999999999997e+01,3.391756895857715448e-01,1.885860315318725333e-01,-4.417190001247814357e-01,4.643826818696951131e-01
2.048000000000000043e+01,3.483500547759126875e-01,1.779631591470189622e-01,-4.345297234224793081e-01,4.684315185131854298e-01
2.049200000000000088e+01,3.571949721579353310e-01,1.670226868120293362e-01,-4.272400457538332308e-01,4.722909851300685635e-01
2.050400000000000134e+01,3.657011831543314218e-01,1.557718535714783803e-01,-4.198539432140038774e-01,4.759582562166119746e-01
2.051599999999999824e+01,3.738594330268081856e-01,1.442180166642825501e-01,-4.123754138530127400e-01,4.794305017600397067e-01
2.052799999999999869e+01,3.816604565286290662e-01,1.323686617058672244e-01,-4.048084843427304791e-01,4.827048801797712008e-01
2.053999999999999915e+01,3.890949638997015514e-01,1.202314145244764154e-01,-3.971572174227835927e-01,4.857785315809474147e-01
2.055199999999999960e+01,3.961536272815311399e-01,1.078140546870349215e-01,-3.894257201363042764e-01,4.886485713579035717e-01
2.056400000000000006e+01,4.028270676331036082e-01,9.512453075355620236e-02,-3.816181528682664470e-01,4.913120841874099032e-01
2.057600000000000051e+01,4.091058422337963685e-01,8.217097730270019051e-02,-3.737387392008940656e-01,4.937661184542257442e-01
2.058800000000000097e+01,4.149804328653659002e-01,6.896173377493280965e-02,-3.657917766024278983e-01,4.960076811547705078e-01
2.060000000000000142e+01,4.204412347721552257e-01,5.550536518368160560e-02,-3.577816479673215921e-01,4.980337333285626000e-01
2.061199999999999832e+01,4.254785465069640948e-01,4.181068474887389419e-02,-3.497128340276323133e-01,4.998411860715761823e-01
2.062399999999999878e+01,4.300825607796510686e-01,2.788677851118095269e-02,-3.415899266569542014e-01,5.014268971908748540e-01
2.063599999999999923e+01,4.342433564365882903e-01,1.374303198925541820e-02,-3.334176430897169974e-01,5.027876685658193567e-01
2.064799999999999969e+01,4.379508917117951872e-01,-6.108410542239083377e-04,-3.252008410797885829e-01,5.039202442879602284e-01
2.066000000000000014e+01,4.411949989049433474e-01,-1.516476766835259983e-02,-3.169445350232962810e-01,5.048213096593670013e-01
2.067200000000000060e+01,4.439653806577564255e-01,-2.990828251943214444e-02,-3.086539130710542200e-01,5.054874911378272051e-01
2.068400000000000105e+01,4.462516080187530765e-01,-4.483049237141428778e-02,-3.003343552560181484e-01,5.059153573270266380e-01
2.069600000000000151e+01,4.480431205069856371e-01,-5.992003816511883019e-02,-2.919914526606248728e-01,5.061014211206908975e-01
2.070799999999999841e+01,4.493292284086845001e-01,-7.516505461933127574e-02,-2.836310276475673131e-01,5.060421431217350108e-01
2.071999999999999886e+01,4.500991175667490296e-01,-9.055312727749292856e-02,-2.752591551753340582e-01,5.057339364709227958e-01
2.073199999999999932e+01,4.503418569520895032e-01,-1.060712469257036467e-01,-2.668821852166117781e-01,5.051731732344070247e-01
2.074399999999999977e+01,4.500464093382645081e-01,-1.217057613119113535e-01,-2.585067662929590449e-01,5.043561925159826265e-01
2.075600000000000023e+01,4.492016454369213707e-01,-1.374423241023239872e-01,-2.501398701330879160e-01,5.032793104780156623e-01
2.076800000000000068e+01,4.477963618916428468e-01,-1.532658410203393551e-01,-2.417888174539886137e-01,5.019388324749471941e-01
2.078000000000000114e+01,4.458193035722463060e-01,-1.691604131258778176e-01,-2.334613048538652369e-01,5.003310675251222417e-01
2.079200000000000159e+01,4.432591906607761811e-01,-1.851092772098306416e-01,-2.251654327928925281e-01,4.984523453705752560e-01
2.080399999999999849e+01,4.401047510747543856e-01,-2.010947433002239215e-01,-2.169097346216850020e-01,4.962990364003849741e-01
2.081599999999999895e+01,4.363447588330978122e-01,-2.170981293047524185e-01,-2.087032065974784578e-01,4.938675747414053019e-01
2.082799999999999940e+01,4.319680790359041733e-01,-2.330996928496197329e-01,-2.005553388037523976e-01,4.911544848506073646e-01
2.083999999999999986e+01,4.269637202012889765e-01,-2.490785604190129121e-01,-1.924761468593933489e-01,4.881564119758882714e-01
2.085200000000000031e+01,4.213208947810994642e-01,-2.650126539542093096e-01,-1.844762042678533553e-01,4.848701568870235623e-01
2.086400000000000077e+01,4.150290887626749692e-01,-2.808786151389124353e-01,-1.765666752137461659e-01,4.812927153152257165e-01
2.087600000000000122e+01,4.080781413560680138e-01,-2.966517276800176295e-01,-1.687593475628779149e-01,4.774213225782623637e-01
2.088800000000000168e+01,4.004583358651096492e-01,-3.123058379936816120e-01,-1.610666657603180285e-01,4.732535039078641370e-01
2.089999999999999858e+01,3.921605029460149550e-01,-3.278132748286155529e-01,-1.535017632481740779e-01,4.687871310365274158e-01
2.091199999999999903e+01,3.831761375680866610e-01,-3.431447685060381447e-01,-1.460784939383254766e-01,4.640204856408645662e-01
2.092399999999999949e+01,3.734975311062521119e-01,-3.582693706330573602e-01,-1.388114621735071774e-01,4.589523302771604252e-01
2.093599999999999994e+01,3.631179201124637435e-01,-3.731543753592130308e-01,-1.317160504902449292e-01,4.535819874799017493e-01
2.094800000000000040e+01,3.520316534297827649e-01,-3.877652435000284448e-01,-1.248084443569374979e-01,4.479094277236373434e-01
2.096000000000000085e+01,3.402343794247614239e-01,-4.020655311542232213e-01,-1.181056528967534963e-01,4.419353669694506825e-01
2.097200000000000131e+01,3.277232552150686762e-01,-4.160168248002710234e-01,-1.116255244151308917e-01,4.356613745257823522e-01
2.098400000000000176e+01,3.144971798522639417e-01,-4.295786852820699941e-01,-1.053867553323930284e-01,4.290899919443335597e-01
2.099599999999999866e+01,3.005570534739601118e-01,-4.427086035921451446e-01,-9.940889087022458659e-02,4.222248636389814291e-01
2.100799999999999912e+01,2.859060644516377425e-01,-4.553619719441437952e-01,-9.371231555363931931e-02,4.150708798511369424e-01
2.101999999999999957e+01,2.705500065126393294e-01,-4.674920743046431237e-01,-8.831823126530416457e-02,4.076343324789519773e-01
2.103200000000000003e+01,2.544976276843323171e-01,-4.790501013379094841e-01,-8.324862022505226389e-02,3.999230841279782234e-01
2.104400000000000048e+01,2.377610126668809054e-01,-4.899851956146582532e-01,-7.852618986433949899e-02,3.919467505127690043e-01
2.105600000000000094e+01,2.203559998519669660e-01,-5.002445339541999880e-01,-7.417429612524288618e-02,3.837168960245453397e-01
2.106800000000000139e+01,2.023026336238379630e-01,-5.097734549107528768e-01,-7.021684124190220866e-02,3.752472418586138003e-01
2.107999999999999829e+01,1.836256517516768050e-01,-5.185156406751967317e-01,-6.667814156888590693e-02,3.665538855422748044e-01
2.109199999999999875e+01,1.643550065430444962e-01,-5.264133640291110972e-01,-6.358276052182434968e-02,3.576555299917538178e-01
2.110399999999999920e+01,1.445264169001632959e-01,-5.334078124302187307e-01,-6.095530121497107906e-02,3.485737193246277177e-01
2.111599999999999966e+01,1.241819464149782615e-01,-5.394395027792281416e-01,-5.882015295280654255e-02,3.393330775293317281e-01
2.112800000000000011e+01,1.033706000570139560e-01,-5.444488018418531805e-01,-5.720118540667652046e-02,3.299615447130166412e-01
2.114000000000000057e+01,8.214892874344878471e-02,-5.483765685655505040e-01,-5.612138414741580511e-02,3.204906039823907093e-01
2.115200000000000102e+01,6.058162702750208989e-02,-5.511649354809774470e-01,-5.560242129563264940e-02,3.109554900357934248e-01
2.116400000000000148e+01,3.874210420222278656e-02,-5.527582467991489779e-01,-5.566415550022726227e-02,3.013953682477462648e-01
2.117599999999999838e+01,1.671300322135887279e-02,-5.531041704239398893e-01,-5.632405639524087210e-02,2.918534704203251118e-01
2.118799999999999883e+01,-5.413365034445925990e-03,-5.521549995348495887e-01,-5.759655027301889552e-02,2.823771705020948208e-01
2.119999999999999929e+01,-2.753471240880054835e-02,-5.498691562110392672e-01,-5.949228612838489832e-02,2.730179805250763092e-01
2.121199999999999974e+01,-4.953863782565903762e-02,-5.462129042367009912e-01,-6.201732466968627039e-02,2.638314439361820196e-01
2.122400000000000020e+01,-7.130272303486337448e-02,-5.411622701551538350e-01,-6.517225755468140924e-02,2.548769006371988666e-01
2.123600000000000065e+01,-9.269492610283446010e-02,-5.347051601995472803e-01,-6.895127016600330339e-02,2.462170957315985564e-01
2.124800000000000111e+01,-1.135743465479027714e-01,-5.268436453320920476e-01,-7.334116880794337712e-02,2.379176026580745729e-01
2.126000000000000156e+01,-1.337924411760100796e-01,-5.175963668210417090e-01,-7.832040229241230000e-02,2.300460316420909757e-01
2.127199999999999847e+01,-1.531947707864586283e-01,-5.070009904146719482e-01,-8.385811832720788117e-02,2.226709969031912262e-01
2.128399999999999892e+01,-1.716233529541980329e-01,-4.951166085606561462e-01,-8.991330652294345083e-02,2.158608215817221510e-01
2.129599999999999937e+01,-1.889196827315636207e-01,-4.820259583202796683e-01,-9.643409147816546512e-02,2.096819686693079665e-01
2.130799999999999983e+01,-2.049284589463490625e-01,-4.678372896716433971e-01,-1.033572501864237492e-01,2.041972000169574586e-01
2.132000000000000028e+01,-2.195020166781359583e-01,-4.526856880188885879e-01,-1.106080364217164047e-01,1.994634841669166991e-01
2.133200000000000074e+01,-2.325054151468761710e-01,-4.367336304769149358e-01,-1.181003989020020239e-01,1.955296972584415482e-01
2.134400000000000119e+01,-2.438220647961870380e-01,-4.201705436599330046e-01,-1.257376777400465162e-01,1.924341888515804788e-01
2.135600000000000165e+01,-2.533597001760691247e-01,-4.032111378568944970e-01,-1.334138527748867098e-01,1.902023145500390255e-01
2.136799999999999855e+01,-2.610564216152765349e-01,-3.860923252004596073e-01,-1.410153959864085260e-01,1.888440670945544797e-01
2.137999999999999901e+01,-2.668864472183472558e-01,-3.690685930076302856e-01,-1.484237473081514158e-01,1.883519634213508542e-01
2.139199999999999946e+01,-2.708651491556594570e-01,-3.524058002357884911e-01,-1.555183891137685293e-01,1.886993625250022177e-01
2.140399999999999991e+01,-2.730529083966026782e-01,-3.363734926270234293e-01,-1.621804416532038329e-01,1.898393930519154116e-01
2.141600000000000037e+01,-2.735573239788750000e-01,-3.212359821911026647e-01,-1.682966440686245180e-01,1.917046561340110256e-01
2.142800000000000082e+01,-2.725333679269867915e-01,-3.072425941877399702e-01,-1.737635296620004544e-01,1.942078353333745178e-01
2.144000000000000128e+01,-2.701811903676145099e-01,-2.946176290223961325e-01,-1.784915575750554151e-01,1.972432915138476184e-01
2.145199999999999818e+01,-2.667414476672348989e-01,-2.835506937629655444e-01,-1.824089340493527667e-01,2.006896490514236686e-01
2.146399999999999864e+01,-2.624882354669433870e-01,-2.741881058331652188e-01,-1.854648518441184557e-01,2.044132975616371473e-01
2.147599999999999909e+01,-2.577199343530385267e-01,-2.666260436315519566e-01,-1.876319003101599436e-01,2.082726496738122879e-01
2.148799999999999955e+01,-2.527484879744654744e-01,-2.609060100290974127e-01,-1.889074511054913419e-01,2.121229212911489304e-01
2.150000000000000000e+01,-2.478877999127042375e-01,-2.570129931918417876e-01,-1.893139010354622509e-01,2.158211468547242551e-01
2.151200000000000045e+01,-2.434420300830039130e-01,-2.548764765852927217e-01,-1.888977452574504834e-01,2.192311165544842955e-01
2.152400000000000091e+01,-2.396945786293402381e-01,-2.543741977810314858e-01,-1.877275495619819545e-01,2.222279292290021135e-01
2.153600000000000136e+01,-2.368984645413053647e-01,-2.553383189546750698e-01,-1.858909773750874739e-01,2.247018928722807618e-01
2.154800000000000182e+01,-2.352686516250610815e-01,-2.575634825409301998e-01,-1.834910948277615750e-01,2.265615684108918115e-01
2.155999999999999872e+01,-2.349766713823582542e-01,-2.608161057550361095e-01,-1.806422184545552478e-01,2.277358323433230636e-01
2.157199999999999918e+01,-2.361476717766014255e-01,-2.648442269253827308e-01,-1.774655820506782777e-01,2.281749189005247147e-01
2.158399999999999963e+01,-2.388598129830316330e-01,-2.693872507604290201e-01,-1.740850836928567180e-01,2.278504819698832784e-01
2.159600000000000009e+01,-2.431457600389275997e-01,-2.741850339408596349e-01,-1.706233363163304484e-01,2.267547826678424916e-01
2.160800000000000054e+01,-2.489959024299675250e-01,-2.789858855512917235e-01,-1.671981931337300220e-01,2.248991549166432791e-01
2.162000000000000099e+01,-2.563628665665909634e-01,-2.835532060915523789e-01,-1.639198607601003999e-01,2.223119269292256062e-01
2.163200000000000145e+01,-2.651668746448251346e-01,-2.876706339767168275e-01,-1.608886555469446478e-01,2.190359824343643402e-01
2.164399999999999835e+01,-2.753015324438982114e-01,-2.911456945938880048e-01,-1.581934079687902506e-01,2.151261352563084983e-01
2.165599999999999881e+01,-2.866396862409180124e-01,-2.938120453644541552e-01,-1.559104794569132479e-01,2.106464691147617585e-01
2.166799999999999926e+01,-2.990390621618254641e-01,-2.955304778794985987e-01,-1.541033272730538972e-01,2.056677660420618836e-01
2.167999999999999972e+01,-3.123474786712659435e-01,-2.961888765714913441e-01,-1.528225356034092486e-01,2.002651159230061095e-01
2.169200000000000017e+01,-3.264074960790442903e-01,-2.957013470218537998e-01,-1.521062236027505843e-01,1.945157697205968372e-01
2.170400000000000063e+01,-3.410604304891835525e-01,-2.940067217320806447e-01,-1.519807415688068097e-01,1.884972722584336013e-01
2.171600000000000108e+01,-3.561497108549804280e-01,-2.910666330428320348e-01,-1.524615725322303883e-01,1.822858882729487540e-01
2.172800000000000153e+01,-3.715235961709664192e-01,-2.868633172771938300e-01,-1.535543662010480925e-01,1.759553182754954315e-01
2.173999999999999844e+01,-3.870372962306231623e-01,-2.813972854707101900e-01,-1.552560436240047193e-01,1.695756884160511402e-01
2.175199999999999889e+01,-4.025545555340373505e-01,-2.746849674189831281e-01,-1.575559227696150810e-01,1.632127904734365087e-01
2.176399999999999935e+01,-4.179487679166565828e-01,-2.667564093127697267e-01,-1.604368265032068419e-01,1.569275435745097480e-01
2.177599999999999980e+01,-4.331036913565967650e-01,-2.576530821172660635e-01,-1.638761445912215176e-01,1.507756474779772815e-01
2.178800000000000026e+01,-4.479138300627225067e-01,-2.474258385694990681e-01,-1.678468300694619941e-01,1.448073975027803217e-01
2.180000000000000071e+01,-4.622845458943625752e-01,-2.361330412178021809e-01,-1.723183174921710803e-01,1.390676327888626662e-01
2.181200000000000117e+01,-4.761319546223374832e-01,-2.238388720143707766e-01,-1.772573562877677866e-01,1.335957920223901640e-01
2.182400000000000162e+01,-4.893826553967490778e-01,-2.106118251402660513e-01,-1.826287568268410710e-01,1.284260536328646896e-01
2.183599999999999852e+01,-5.019733346526727980e-01,-1.965233784782528803e-01,-1.883960500428966678e-01,1.235875404813151085e-01
2.184799999999999898e+01,-5.138502789518496483e-01,-1.816468349454947728e-01,-1.945220637326802449e-01,1.191045720056393559e-01
2.185999999999999943e+01,-5.249688251509433412e-01,-1.660563222927579075e-01,-2.009694201889099530e-01,1.149969495443393802e-01
