Frequency, Re(SMin1Min1), Im(SMin1Min1), Re(SMax1Min1), Im(SMax1Min1)
2.000000000000000000e+01,-1.972708003336046956e-01,2.651911176386101410e-01,-5.952149967210743631e-01,1.747850001977824808e-01
2.001200000000000045e+01,-1.833015765971102162e-01,2.723398848476222267e-01,-5.954390818789229156e-01,1.838256531846155784e-01
2.002400000000000091e+01,-1.691647679097257051e-01,2.789729246703390175e-01,-5.953907458003085962e-01,1.928544646330603574e-01
2.003600000000000136e+01,-1.548783913366595377e-01,2.850883314695807913e-01,-5.950728345863982582e-01,2.018624299057550919e-01
2.004799999999999827e+01,-1.404602296876885648e-01,2.906848212166096568e-01,-5.944884630812294901e-01,2.108408519786763025e-01
2.005999999999999872e+01,-1.259278130130205842e-01,2.957617001585955974e-01,-5.936409881169155689e-01,2.197813438147903642e-01
2.007199999999999918e+01,-1.112984028162255223e-01,3.003188334708175589e-01,-5.925339826392767018e-01,2.286758287505246123e-01
2.008399999999999963e+01,-9.658897889213369226e-02,3.043566140831486244e-01,-5.911712108279199018e-01,2.375165390442013358e-01
2.009600000000000009e+01,-8.181622868789585612e-02,3.078759318556282820e-01,-5.895566043065810780e-01,2.462960127371845442e-01
2.010800000000000054e+01,-6.699653907780961370e-02,3.108781432632691799e-01,-5.876942395224051818e-01,2.550070889781303474e-01
2.012000000000000099e+01,-5.214599043624586205e-02,3.133650417355294260e-01,-5.855883163566146798e-01,2.636429019590517675e-01
2.013200000000000145e+01,-3.728035288851511836e-02,3.153388287822574410e-01,-5.832431380143396904e-01,2.721968736085584317e-01
2.014399999999999835e+01,-2.241508461624661455e-02,3.168020860234117553e-01,-5.806630922274922391e-01,2.806627051834221231e-01
2.015599999999999881e+01,-7.565332091837364235e-03,3.177577482277590404e-01,-5.778526337923377554e-01,2.890343678942483563e-01
2.016799999999999926e+01,7.254067884207012623e-03,3.182090774524305998e-01,-5.748162684523315802e-01,2.973060926949481209e-01
2.017999999999999972e+01,2.202858446910156698e-02,3.181596383639226366e-01,-5.715585381269817633e-01,3.054723593591588959e-01
2.019200000000000017e+01,3.674398751167068378e-02,3.176132748101524461e-01,-5.680840074788731098e-01,3.135278849597432083e-01
2.020400000000000063e+01,5.138634085767130460e-02,3.165740877031335554e-01,-5.643972518037854158e-01,3.214676118600571231e-01
2.021600000000000108e+01,6.594199434703319762e-02,3.150464142617963592e-01,-5.605028462226501196e-01,3.292866953183724021e-01
2.022800000000000153e+01,8.039757462105145969e-02,3.130348086573718214e-01,-5.564053561486884680e-01,3.369804907995083698e-01
2.023999999999999844e+01,9.473997485368443328e-02,3.105440240945259167e-01,-5.521093289993821429e-01,3.445445410801414310e-01
2.025199999999999889e+01,1.089563435180147949e-01,3.075789963559639184e-01,-5.476192871194969225e-01,3.519745632273345581e-01
2.026399999999999935e+01,1.230340722944536502e-01,3.041448288311918713e-01,-5.429397218791788271e-01,3.592664355228540884e-01
2.027599999999999980e+01,1.369607832238223522e-01,3.002467790458411279e-01,-5.380750889094417788e-01,3.664161843993131717e-01
2.028800000000000026e+01,1.507243152039700884e-01,2.958902467023872829e-01,-5.330298044367864918e-01,3.734199714479295440e-01
2.030000000000000071e+01,1.643127099249059309e-01,2.910807632405242873e-01,-5.278082426783112791e-01,3.802740805520198331e-01
2.031200000000000117e+01,1.777141973333752623e-01,2.858239829214765382e-01,-5.224147342589395837e-01,3.869749051948992435e-01
2.032400000000000162e+01,1.909171807141144817e-01,2.801256754385660352e-01,-5.168535656134694012e-01,3.935189359860757907e-01
2.033599999999999852e+01,2.039102214714798023e-01,2.739917200543021680e-01,-5.111289793369739876e-01,3.999027484452481462e-01
2.034799999999999898e+01,2.166820236922034626e-01,2.674281012632055421e-01,-5.052451754490755453e-01,4.061229910797110598e-01
2.035999999999999943e+01,2.292214185666064663e-01,2.604409059785623426e-01,-4.992063135389956385e-01,4.121763737874171163e-01
2.037199999999999989e+01,2.415173487437319577e-01,2.530363222410637047e-01,-4.930165157608625837e-01,4.180596566150452387e-01
2.038400000000000034e+01,2.535588526931535358e-01,2.452206394474275297e-01,-4.866798706504535943e-01,4.237696388981311846e-01
2.039600000000000080e+01,2.653350491449869564e-01,2.370002500975777193e-01,-4.802004377374329835e-01,4.293031488083273728e-01
2.040800000000000125e+01,2.768351216781492763e-01,2.283816530593937577e-01,-4.735822529291770500e-01,4.346570333316079338e-01
2.042000000000000171e+01,2.880483035265035130e-01,2.193714583516467309e-01,-4.668293346450539394e-01,4.398281487002445034e-01
2.043199999999999861e+01,2.989638626719873238e-01,2.099763934463357573e-01,-4.599456906824007096e-01,4.448133513010789630e-01
2.044399999999999906e+01,3.095710872947014525e-01,2.002033110935060867e-01,-4.529353257977523084e-01,4.496094890825443890e-01
2.045599999999999952e+01,3.198592716505138100e-01,1.900591986729154026e-01,-4.458022499895999413e-01,4.542133934835381193e-01
2.046799999999999997e+01,3.298177024486765307e-01,1.795511890785347064e-01,-4.385504874707883416e-01,4.586218719082034156e-01
2.048000000000000043e+01,3.394356458039404223e-01,1.686865731434526450e-01,-4.311840863210811836e-01,4.628317007720596510e-01
2.049200000000000088e+01,3.487023348407871093e-01,1.574728136143130897e-01,-4.237071288122203905e-01,4.668396191468994205e-01
2.050400000000000134e+01,3.576069580308016693e-01,1.459175606857780472e-01,-4.161237423995521323e-01,4.706423230341192920e-01
2.051599999999999824e+01,3.661386483486361865e-01,1.340286691068303393e-01,-4.084381113757549198e-01,4.742364602989592171e-01
2.052799999999999869e+01,3.742864733370079300e-01,1.218142168717099988e-01,-4.006544891833729860e-01,4.776186263013081357e-01
2.053999999999999915e+01,3.820394261769310962e-01,1.092825255090953268e-01,-3.927772113837548207e-01,4.807853602623496925e-01
2.055199999999999960e+01,3.893864178660060849e-01,9.644218198337112247e-02,-3.848107092804011753e-01,4.837331424103890054e-01
2.056400000000000006e+01,3.963162706149057635e-01,8.330206222187677700e-02,-3.767595241948849538e-01,4.864583919536618062e-01
2.057600000000000051e+01,4.028177125804150438e-01,6.987135628131545262e-02,-3.686283223930510999e-01,4.889574659328169148e-01
2.058800000000000097e+01,4.088793740623841710e-01,5.615959516530428380e-02,-3.604219106583415044e-01,4.912266590110671016e-01
2.060000000000000142e+01,4.144897853019142708e-01,4.217667930304398738e-02,-3.521452525075633999e-01,4.932622042657187067e-01
2.061199999999999832e+01,4.196373760288191201e-01,2.793290869629200951e-02,-3.438034850423720701e-01,4.950602750508668048e-01
2.062399999999999878e+01,4.243104769180939817e-01,1.343901473800748585e-02,-3.354019364268321923e-01,4.966169880075636534e-01
2.063599999999999923e+01,4.284973231278098593e-01,-1.293806298693205795e-03,-3.269461439779121625e-01,4.979284073045776582e-01
2.064799999999999969e+01,4.321860601042675221e-01,-1.625385810898941075e-02,-3.184418728512043995e-01,4.989905502000769322e-01
2.066000000000000014e+01,4.353647518547231199e-01,-3.142890755707951345e-02,-3.098951352987999175e-01,4.997993940220846198e-01
2.067200000000000060e+01,4.380213919035077508e-01,-4.680614625344629159e-02,-3.013122104697595338e-01,5.003508846733096815e-01
2.068400000000000105e+01,4.401439171634061731e-01,-6.237215054349407040e-02,-2.926996647159619269e-01,5.006409467739971753e-01
2.069600000000000151e+01,4.417202249716334905e-01,-7.811283995530954316e-02,-2.840643723571916190e-01,5.006654955646121508e-01
2.070799999999999841e+01,4.427381935575765426e-01,-9.401343416925182772e-02,-2.754135368490854274e-01,5.004204506985046041e-01
2.071999999999999886e+01,4.431857062285300408e-01,-1.100584085895946196e-01,-2.667547122855608577e-01,4.999017520629888134e-01
2.073199999999999932e+01,4.430506795791333552e-01,-1.262314486184387685e-01,-2.580958251540504400e-01,4.991053777754838050e-01
2.074399999999999977e+01,4.423210960506995804e-01,-1.425154027555844971e-01,-2.494451962463016259e-01,4.980273645094693835e-01
2.075600000000000023e+01,4.409850411874284282e-01,-1.588922346745173797e-01,-2.408115626103987106e-01,4.966638303126300058e-01
2.076800000000000068e+01,4.390307459578411398e-01,-1.753429744549208358e-01,-2.322040994100461331e-01,4.950110000866906890e-01
2.078000000000000114e+01,4.364466345315480833e-01,-1.918476691868496453e-01,-2.236324415355744333e-01,4.930652339050268229e-01
2.079200000000000159e+01,4.332213779230313921e-01,-2.083853332006221359e-01,-2.151067047867577520e-01,4.908230583494196386e-01
2.080399999999999849e+01,4.293439539358878676e-01,-2.249338982206618986e-01,-2.066375064207979506e-01,4.882812010517955104e-01
2.081599999999999895e+01,4.248037138619749076e-01,-2.414701637915767085e-01,-1.982359848290234650e-01,4.854366286292634558e-01
2.082799999999999940e+01,4.195904564103895007e-01,-2.579697483804334612e-01,-1.899138180733423165e-01,4.822865882019033990e-01
2.083999999999999986e+01,4.136945093603754953e-01,-2.744070416226381259e-01,-1.816832409775263057e-01,4.788286526809512056e-01
2.085200000000000031e+01,4.071068194493596137e-01,-2.907551582489507624e-01,-1.735570604293906749e-01,4.750607700109997222e-01
2.086400000000000077e+01,3.998190510228606387e-01,-3.069858943107034444e-01,-1.655486685074417097e-01,4.709813165422108150e-01
2.087600000000000122e+01,3.918236939844189082e-01,-3.230696864082881481e-01,-1.576720529994027897e-01,4.665891546970769022e-01
2.088800000000000168e+01,3.831141815918424620e-01,-3.389755747272162334e-01,-1.499418048305236617e-01,4.618836950802943098e-01
2.089999999999999858e+01,3.736850186486955216e-01,-3.546711707960589210e-01,-1.423731218661643538e-01,4.568649631588976856e-01
2.091199999999999903e+01,3.635319206361468103e-01,-3.701226310039628653e-01,-1.349818084963196052e-01,4.515336706124506994e-01
2.092399999999999949e+01,3.526519643182784436e-01,-3.852946370523531172e-01,-1.277842703492765020e-01,4.458912914183479348e-01
2.093599999999999994e+01,3.410437503317760854e-01,-4.001503846686622623e-01,-1.207975034177078688e-01,4.399401426945594995e-01
2.094800000000000040e+01,3.287075782360189824e-01,-4.146515820799790975e-01,-1.140390768135945143e-01,4.336834702701133359e-01
2.096000000000000085e+01,3.156456344488159926e-01,-4.287584599337869729e-01,-1.075271082985459065e-01,4.271255388907747585e-01
2.097200000000000131e+01,3.018621934227951331e-01,-4.424297945635710105e-01,-1.012802316640732531e-01,4.202717268927025906e-01
2.098400000000000176e+01,2.873638323227643010e-01,-4.556229467303320457e-01,-9.531755496274534056e-02,4.131286250882870159e-01
2.099599999999999866e+01,2.721596593396766184e-01,-4.682939182293278657e-01,-8.965860851679266497e-02,4.057041395045257182e-01
2.100799999999999912e+01,2.562615556147780915e-01,-4.803974290367306055e-01,-8.432328155679702508e-02,3.980075974929105920e-01
2.101999999999999957e+01,2.396844305393668328e-01,-4.918870179840276191e-01,-7.933174627108531551e-02,3.900498565889984892e-01
2.103200000000000003e+01,2.224464899302400211e-01,-5.027151702907176611e-01,-7.470436797805446449e-02,3.818434153368979178e-01
2.104400000000000048e+01,2.045695162453208260e-01,-5.128334756571195641e-01,-7.046160007140392367e-02,3.734025251066248052e-01
2.105600000000000094e+01,1.860791595815158572e-01,-5.221928210175573737e-01,-6.662386233484414444e-02,3.647433017174529502e-01
2.106800000000000139e+01,1.670052376681224471e-01,-5.307436224752225540e-01,-6.321140118204164604e-02,3.558838354351800959e-01
2.107999999999999829e+01,1.473820424105152516e-01,-5.384361013754773717e-01,-6.024413035386110005e-02,3.468442976322849147e-01
2.109199999999999875e+01,1.272486497226336388e-01,-5.452206099109557780e-01,-5.774145060401147250e-02,3.376470420838120212e-01
2.110399999999999920e+01,1.066492283810393654e-01,-5.510480120686690464e-01,-5.572204693305397166e-02,3.283166985151716455e-01
2.111599999999999966e+01,8.563334240141436127e-02,-5.558701260954901358e-01,-5.420366199809192875e-02,3.188802556171781433e-01
2.112800000000000011e+01,6.425623994140605699e-02,-5.596402349291605960e-01,-5.320284444210152119e-02,3.093671302959816738e-01
2.114000000000000057e+01,4.257911993038736298e-02,-5.623136711547604971e-01,-5.273467106607011151e-02,2.998092194282884204e-01
2.115200000000000102e+01,2.066936547878351488e-02,-5.638484829154467581e-01,-5.281244202491346129e-02,2.902409298446083086e-01
2.116400000000000148e+01,-1.399269403057139607e-03,-5.642061867163876698e-01,-5.344734858429584651e-02,2.806991816658992445e-01
2.117599999999999838e+01,-2.354653615679607251e-02,-5.633526120622120992e-01,-5.464811345316235996e-02,2.712233794757281657e-01
2.118799999999999883e+01,-4.568565075783721091e-02,-5.612588411706577185e-01,-5.642060433383729035e-02,2.618553451290484557e-01
2.119999999999999929e+01,-6.772335876270278721e-02,-5.579022443751207039e-01,-5.876742213990322067e-02,2.526392052941006106e-01
2.121199999999999974e+01,-8.956013328428898135e-02,-5.532676079924873092e-01,-6.168746635814609247e-02,2.436212261180675520e-01
2.122400000000000020e+01,-1.110905364706957776e-01,-5.473483460878683093e-01,-6.517548131463436756e-02,2.348495867338204757e-01
2.123600000000000065e+01,-1.322037781480079888e-01,-5.401477804129255489e-01,-6.922158868865989356e-02,2.263740827319192239e-01
2.124800000000000111e+01,-1.527845072276727001e-01,-5.316804635806884338e-01,-7.381081354360774505e-02,2.182457502752968848e-01
2.126000000000000156e+01,-1.727138714235845751e-01,-5.219735091593538101e-01,-7.892261344785246602e-02,2.105164013218843166e-01
2.127199999999999847e+01,-1.918708776727690857e-01,-5.110678789837368452e-01,-8.453042296803535416e-02,2.032380605573135268e-01
2.128399999999999892e+01,-2.101340780975873013e-01,-4.990195632077958354e-01,-9.060122893775092445e-02,1.964622952695945224e-01
2.129599999999999937e+01,-2.273835930054456667e-01,-4.859005737305450157e-01,-9.709519541198655124e-02,1.902394306952369107e-01
2.130799999999999983e+01,-2.435034621251164488e-01,-4.717996587700736266e-01,-1.039653610396768929e-01,1.846176455363088553e-01
2.132000000000000028e+01,-2.583842875438218112e-01,-4.568226386915197890e-01,-1.111574355861403574e-01,1.796419456178893481e-01
2.133200000000000074e+01,-2.719260975312489115e-01,-4.410922647754906833e-01,-1.186097262911906952e-01,1.753530182634254198e-01
2.134400000000000119e+01,-2.840413227011498454e-01,-4.247475178955723574e-01,-1.262532283271315114e-01,1.717859761353141834e-01
2.135600000000000165e+01,-2.946577407680980865e-01,-4.079422967530608735e-01,-1.340119163683604342e-01,1.689690071954270123e-01
2.136799999999999855e+01,-3.037212225884626249e-01,-3.908434964578894610e-01,-1.418032756098294711e-01,1.669219571621292642e-01
2.137999999999999901e+01,-3.111981113754929695e-01,-3.736285438789844759e-01,-1.495391097551133919e-01,1.656548822920015374e-01
2.139199999999999946e+01,-3.170770992895106111e-01,-3.564825251381442683e-01,-1.571266597142376431e-01,1.651666231742706936e-01
2.140399999999999991e+01,-3.213705357152361608e-01,-3.395950939702913618e-01,-1.644700591500558029e-01,1.654434638573409333e-01
2.141600000000000037e+01,-3.241152025258022262e-01,-3.231573636487046763e-01,-1.714721408014465709e-01,1.664579540091528087e-01
2.142800000000000082e+01,-3.253727005613747947e-01,-3.073589387286519981e-01,-1.780365901287433439e-01,1.681679835037350745e-01
2.144000000000000128e+01,-3.252296703164027636e-01,-2.923851290999407992e-01,-1.840704201249131478e-01,1.705162069778954070e-01
2.145199999999999818e+01,-3.237980747147773952e-01,-2.784142262257195966e-01,-1.894867136083927261e-01,1.734299183670075239e-01
2.146399999999999864e+01,-3.212156715049877542e-01,-2.656145578707944654e-01,-1.942075482948869558e-01,1.768214699705180359e-01
2.147599999999999909e+01,-3.176465986841931488e-01,-2.541409408170825501e-01,-1.981669877567890370e-01,1.805893152245433841e-01
2.148799999999999955e+01,-3.132817346933803315e-01,-2.441301844983578273e-01,-2.013139913318002239e-01,1.846197277583388197e-01
2.150000000000000000e+01,-3.083382600688669983e-01,-2.356954909896338268e-01,-2.036150722496471721e-01,1.887892113347318102e-01
2.151200000000000045e+01,-3.030577332877175678e-01,-2.289199210426711706e-01,-2.050565201889011369e-01,1.929675673773535161e-01
2.152400000000000091e+01,-2.977020675187423970e-01,-2.238494694713024091e-01,-2.056460063332601618e-01,1.970215322939965485e-01
2.153600000000000136e+01,-2.925470657485638726e-01,-2.204866049612138057e-01,-2.054134088089701327e-01,2.008188408770692213e-01
2.154800000000000182e+01,-2.878735831555671587e-01,-2.187852796088827767e-01,-2.044107352045747839e-01,2.042325212560372194e-01
2.155999999999999872e+01,-2.839568358600382258e-01,-2.186483494969926333e-01,-2.027110751061090566e-01,2.071451882944749523e-01
2.157199999999999918e+01,-2.810547523989127550e-01,-2.199280793262295697e-01,-2.004065847348957263e-01,2.094530824349503939e-01
2.158399999999999963e+01,-2.793964818258620753e-01,-2.224299959185817577e-01,-1.976055807848021706e-01,2.110696043592438509e-01
2.159600000000000009e+01,-2.791721907288982063e-01,-2.259199012571454501e-01,-1.944288927001551204e-01,2.119281240188534421e-01
2.160800000000000054e+01,-2.805251119832105622e-01,-2.301334498187311284e-01,-1.910056829309496884e-01,2.119838935900295318e-01
2.162000000000000099e+01,-2.835465014137837914e-01,-2.347874082340173085e-01,-1.874689854770078545e-01,2.112149622336401411e-01
2.163200000000000145e+01,-2.882737856456474845e-01,-2.395915832814425606e-01,-1.839512293248736219e-01,2.096220680666470715e-01
2.164399999999999835e+01,-2.946918167356796792e-01,-2.442604263019355071e-01,-1.805800038102247096e-01,2.072275601045231730e-01
2.165599999999999881e+01,-3.027368436914451011e-01,-2.485234694784834719e-01,-1.774742898467938923e-01,2.040734711178560368e-01
2.166799999999999926e+01,-3.123026020778909007e-01,-2.521339771353526826e-01,-1.747413298202686871e-01,2.002189142293151203e-01
2.167999999999999972e+01,-3.232478211894066478e-01,-2.548754547025582351e-01,-1.724742471891805018e-01,1.957370073993553172e-01
2.169200000000000017e+01,-3.354044445193389845e-01,-2.565659069515965895e-01,-1.707504624593655651e-01,1.907115396851746525e-01
2.170400000000000063e+01,-3.485859313806374815e-01,-2.570599453941391777e-01,-1.696308924330971468e-01,1.852335832334151833e-01
2.171600000000000108e+01,-3.625951278938981392e-01,-2.562489962044721681e-01,-1.691598699679133511e-01,1.793982294930345778e-01
2.172800000000000153e+01,-3.772313372537655085e-01,-2.540599511587890991e-01,-1.693656851667288687e-01,1.733015923950299297e-01
2.173999999999999844e+01,-3.922963601373961051e-01,-2.504526407043548564e-01,-1.702616269717240893e-01,1.670381807025426435e-01
2.175199999999999889e+01,-4.075994010009945101e-01,-2.454165016847043024e-01,-1.718473956775539990e-01,1.606987012286668903e-01
2.176399999999999935e+01,-4.229608363156214801e-01,-2.389667757347007926e-01,-1.741107597287185615e-01,1.543683178639771170e-01
2.177599999999999980e+01,-4.382149137580074183e-01,-2.311405205974604304e-01,-1.770293414482963790e-01,1.481253607477069634e-01
2.178800000000000026e+01,-4.532114983490329041e-01,-2.219926561166787604e-01,-1.805724330434655411e-01,1.420404565876120517e-01
2.180000000000000071e+01,-4.678170063425446390e-01,-2.115922071474968524e-01,-1.847027635997595951e-01,1.361760351726403195e-01
2.181200000000000117e+01,-4.819146752076323148e-01,-2.000188520673047143e-01,-1.893781575696433239e-01,1.305861578793111877e-01
2.182400000000000162e+01,-4.954043132883811373e-01,-1.873598405659434307e-01,-1.945530438514660176e-01,1.253166103487450556e-01
2.183599999999999852e+01,-5.082016600955343577e-01,-1.737073087941896354e-01,-2.001797909012154042e-01,1.204052022324117316e-01
2.184799999999999898e+01,-5.202374712765731601e-01,-1.591559933960260687e-01,-2.062098568938533494e-01,1.158822207016726030e-01
2.185999999999999943e+01,-5.314564238101819882e-01,-1.438013273972321981e-01,-2.125947546181171377e-01,1.117709901586987215e-01
