Frequency, Re(SMin1Min1), Im(SMin1Min1), Re(SMax1Min1), Im(SMax1Min1)
2.000000000000000000e+01,-3.466472025568492210e-01,-5.302136233504540774e-01,-2.307233322454980695e-01,-3.124319518315112412e-02
2.001200000000000045e+01,-3.577678103517681341e-01,-5.176324234812099689e-01,-2.375021073886732781e-01,-3.297691763480026933e-02
2.002400000000000091e+01,-3.685013800961316477e-01,-5.046852732181713597e-01,-2.443765561429716293e-01,-3.448532450169002062e-02
2.003600000000000136e+01,-3.788329444941146429e-01,-4.913840650410176147e-01,-2.513394540444895409e-01,-3.576384934931865073e-02
2.004799999999999827e+01,-3.887478692387512647e-01,-4.777413403194835650e-01,-2.583833549097589999e-01,-3.680815080380990534e-02
2.005999999999999872e+01,-3.982318822062970720e-01,-4.637702812966779664e-01,-2.655005980143950173e-01,-3.761412338761153940e-02
2.007199999999999918e+01,-4.072711024642711175e-01,-4.494847016184610466e-01,-2.726833158389818101e-01,-3.817790806274694998e-02
2.008399999999999963e+01,-4.158520690029822164e-01,-4.348990354170345074e-01,-2.799234423636842162e-01,-3.849590244552349161e-02
2.009600000000000009e+01,-4.239617691007188105e-01,-4.200283249643526062e-01,-2.872127218899943046e-01,-3.856477065806763332e-02
2.010800000000000054e+01,-4.315876662340935588e-01,-4.048882069180068100e-01,-2.945427183652701286e-01,-3.838145278379646169e-02
2.012000000000000099e+01,-4.387177274468166410e-01,-3.894948971895625389e-01,-3.019048251829440366e-01,-3.794317389595016493e-02
2.013200000000000145e+01,-4.453404500927530263e-01,-3.738651744723053838e-01,-3.092902754287475409e-01,-3.724745263057844397e-02
2.014399999999999835e+01,-4.514448878723281711e-01,-3.580163624722249027e-01,-3.166901525409268059e-01,-3.629210927794795233e-02
2.015599999999999881e+01,-4.570206760852412731e-01,-3.419663108927414874e-01,-3.240954013502801989e-01,-3.507527336906882121e-02
2.016799999999999926e+01,-4.620580560269695880e-01,-3.257333752299582108e-01,-3.314968394639048466e-01,-3.359539073709871815e-02
2.017999999999999972e+01,-4.665478984617532077e-01,-3.093363954410717209e-01,-3.388851689549566282e-01,-3.185123003653544949e-02
2.019200000000000017e+01,-4.704817261104670134e-01,-2.927946735541074319e-01,-3.462509883193126137e-01,-2.984188870654251938e-02
2.020400000000000063e+01,-4.738517350981525933e-01,-2.761279502920748197e-01,-3.535848046590028271e-01,-2.756679836826960578e-02
2.021600000000000108e+01,-4.766508153128214964e-01,-2.593563807889445183e-01,-3.608770460515516865e-01,-2.502572964972038863e-02
2.022800000000000153e+01,-4.788725696344480198e-01,-2.425005094786983062e-01,-3.681180740639822258e-01,-2.221879643548860944e-02
2.023999999999999844e+01,-4.805113320008252420e-01,-2.255812442416373631e-01,-3.752981963702085588e-01,-1.914645954253221816e-02
2.025199999999999889e+01,-4.815621842850421608e-01,-2.086198298945549923e-01,-3.824076794308813310e-01,-1.580952982704193766e-02
2.026399999999999935e+01,-4.820209719677258642e-01,-1.916378211129469433e-01,-3.894367611954291930e-01,-1.220917073136985019e-02
2.027599999999999980e+01,-4.818843185958307518e-01,-1.746570548740751794e-01,-3.963756637871868049e-01,-8.346900283822065655e-03
2.028800000000000026e+01,-4.811496390285067148e-01,-1.576996225097650195e-01,-4.032146061338809928e-01,-4.224592567960858136e-03
2.030000000000000071e+01,-4.798151514794571360e-01,-1.407878414567864944e-01,-4.099438165076462748e-01,1.555213182349229146e-04
2.031200000000000117e+01,-4.778798883740507653e-01,-1.239442267908665435e-01,-4.165535449409277780e-01,4.790852789410791901e-03
2.032400000000000162e+01,-4.753437060482513798e-01,-1.071914626276861543e-01,-4.230340754872147224e-01,9.678455758700877168e-03
2.033599999999999852e+01,-4.722072933250802684e-01,-9.055237347059126585e-02,-4.293757382984889071e-01,1.481502705179810371e-02
2.034799999999999898e+01,-4.684721790127281960e-01,-7.404989558022008478e-02,-4.355689214945732690e-01,2.019690721560567920e-02
2.035999999999999943e+01,-4.641407383765741579e-01,-5.770704843595036299e-02,-4.416040828031446708e-01,2.582008168504872428e-02
2.037199999999999989e+01,-4.592161986450484790e-01,-4.154690635262447973e-02,-4.474717609531921325e-01,3.168018226920153030e-02
2.038400000000000034e+01,-4.537026436165774168e-01,-2.559257030904305008e-02,-4.531625868088702269e-01,3.777248891566867967e-02
2.039600000000000080e+01,-4.476050174415271976e-01,-9.867140036634735115e-03,-4.586672942352740256e-01,4.409193171036190212e-02
2.040800000000000125e+01,-4.409291276591827402e-01,5.606313592040056658e-03,-4.639767306924332257e-01,5.063309306835254986e-02
2.042000000000000171e+01,-4.336816475751800737e-01,2.080477584488256079e-02,-4.690818675588650510e-01,5.739021007041925082e-02
2.043199999999999861e+01,-4.258701180694471344e-01,3.570531506217510670e-02,-4.739738101912659429e-01,6.435717689925747609e-02
2.044399999999999906e+01,-4.175029489284823869e-01,5.028510923012748102e-02,-4.786438077323963425e-01,7.152754732914048952e-02
2.045599999999999952e+01,-4.085894197987129384e-01,6.452147219892762076e-02,-4.830832626847802458e-01,7.889453722303367555e-02
2.046799999999999997e+01,-3.991396808594883105e-01,7.839187956064465335e-02,-4.872837402736722168e-01,8.645102699199344598e-02
2.048000000000000043e+01,-3.891647533151638694e-01,9.187399421502995267e-02,-4.912369776285750445e-01,9.418956397287410465e-02
2.049200000000000088e+01,-3.786765298053888507e-01,1.049456916647475702e-01,-4.949348928185751118e-01,1.021023646822033781e-01
2.050400000000000134e+01,-3.676877748312147864e-01,1.175850850953514409e-01,-4.983695937828271916e-01,1.101813169064422560e-01
2.051599999999999824e+01,-3.562121252918779568e-01,1.297705503095634982e-01,-5.015333872035462326e-01,1.184179815917626583e-01
2.052799999999999869e+01,-3.442640912229402161e-01,1.414807505999664539e-01,-5.044187873749740314e-01,1.268035945000626497e-01
2.053999999999999915e+01,-3.318590568210034175e-01,1.526946616589655026e-01,-5.070185251277850025e-01,1.353290676020472705e-01
2.055199999999999960e+01,-3.190132818330116415e-01,1.633915966399682174e-01,-5.093255568744023964e-01,1.439849901831424250e-01
2.056400000000000006e+01,-3.057439033796258143e-01,1.735512314986761839e-01,-5.113330738465092784e-01,1.527616296434378684e-01
2.057600000000000051e+01,-2.920689382717353566e-01,1.831536307585231727e-01,-5.130345116017690499e-01,1.616489319791764301e-01
2.058800000000000097e+01,-2.780072858670774028e-01,1.921792738592263960e-01,-5.144235598822446409e-01,1.706365219402743716e-01
2.060000000000000142e+01,-2.635787314999551434e-01,2.006090822621428849e-01,-5.154941729122496374e-01,1.797137028661584535e-01
2.061199999999999832e+01,-2.488039505010742058e-01,2.084244475005040398e-01,-5.162405802282693523e-01,1.888694562108215735e-01
2.062399999999999878e+01,-2.337045128064701438e-01,2.156072603764634388e-01,-5.166572981381201135e-01,1.980924407774709295e-01
2.063599999999999923e+01,-2.183028881343695160e-01,2.221399415200387140e-01,-5.167391419105408223e-01,2.073709916934706465e-01
2.064799999999999969e+01,-2.026224516861715730e-01,2.280054735374167085e-01,-5.164812387999144772e-01,2.166931191676589596e-01
2.066000000000000014e+01,-1.866874903029995536e-01,2.331874349872236907e-01,-5.158790420136194488e-01,2.260465070842850588e-01
2.067200000000000060e+01,-1.705232089817819707e-01,2.376700364332916537e-01,-5.149283457315373402e-01,2.354185115011232510e-01
2.068400000000000105e+01,-1.541557376248711142e-01,2.414381588306802051e-01,-5.136253012883812419e-01,2.447961591335715281e-01
2.069600000000000151e+01,-1.376121378645398519e-01,2.444773945080211119e-01,-5.119664346295356161e-01,2.541661459218516605e-01
2.070799999999999841e+01,-1.209204097682976403e-01,2.467740910132358578e-01,-5.099486651499384182e-01,2.635148357947743603e-01
2.071999999999999886e+01,-1.041094981927355584e-01,2.483153980909630909e-01,-5.075693260229425796e-01,2.728282597609424376e-01
2.073199999999999932e+01,-8.720929851271777555e-02,2.490893180581160993e-01,-5.048261861218855673e-01,2.820921154766060646e-01
2.074399999999999977e+01,-7.025066140878996612e-02,2.490847598384494099e-01,-5.017174736310346939e-01,2.912917674588554329e-01
2.075600000000000023e+01,-5.326539634936613282e-02,2.482915969071865792e-01,-4.982419014344519614e-01,3.004122481330129268e-01
2.076800000000000068e+01,-3.628627335511375868e-02,2.467007293821480984e-01,-4.943986943608231766e-01,3.094382599242102017e-01
2.078000000000000114e+01,-1.934702258159055888e-02,2.443041504776854722e-01,-4.901876183491672978e-01,3.183541786248524352e-01
2.079200000000000159e+01,-2.482331202733174813e-03,2.410950175114071059e-01,-4.856090115843029187e-01,3.271440582918732631e-01
2.080399999999999849e+01,1.427216297729367277e-02,2.370677276204253281e-01,-4.806638176316336275e-01,3.357916379501280635e-01
2.081599999999999895e+01,3.087988181262791079e-02,2.322179983028511419e-01,-4.753536205779711477e-01,3.442803504006896609e-01
2.082799999999999940e+01,4.730332168990306757e-02,2.265429528507754975e-01,-4.696806821584069147e-01,3.525933334547217690e-01
2.083999999999999986e+01,6.350407372983596366e-02,2.200412106820804903e-01,-4.636479808182726314e-01,3.607134439348542720e-01
2.085200000000000031e+01,7.944285011262074148e-02,2.127129825094698501e-01,-4.572592526239105948e-01,3.686232748056531561e-01
2.086400000000000077e+01,9.507951737589259711e-02,2.045601702051922099e-01,-4.505190338958007801e-01,3.763051758126642610e-01
2.087600000000000122e+01,1.103731375821988686e-01,1.955864711284585056e-01,-4.434327053925380957e-01,3.837412780246490240e-01
2.088800000000000168e+01,1.252820182954144101e-01,1.857974865788971364e-01,-4.360065378239690315e-01,3.909135226853542866e-01
2.089999999999999858e+01,1.397637723404402676e-01,1.752008339231281853e-01,-4.282477384164685152e-01,3.978036947885359442e-01
2.091199999999999903e+01,1.537753883457074477e-01,1.638062618124090930e-01,-4.201644981928624456e-01,4.043934617920239560e-01
2.092399999999999949e+01,1.672733130809372637e-01,1.516257677674471005e-01,-4.117660395641496995e-01,4.106644178822193569e-01
2.093599999999999994e+01,1.802135466010211517e-01,1.386737172519682537e-01,-4.030626637601139595e-01,4.165981341885592326e-01
2.094800000000000040e+01,1.925517511874097754e-01,1.249669631906215744e-01,-3.940657975519297196e-01,4.221762153266854223e-01
2.096000000000000085e+01,2.042433750385799496e-01,1.105249647100823573e-01,-3.847880386424699095e-01,4.273803626182937077e-01
2.097200000000000131e+01,2.152437915975070337e-01,9.536990369681387636e-02,-3.752431990203761170e-01,4.321924442934421129e-01
2.098400000000000176e+01,2.255084553135968395e-01,7.952679757309795427e-02,-3.654463454933099542e-01,4.365945729263009945e-01
2.099599999999999866e+01,2.349930745160924150e-01,6.302360649771951429e-02,-3.554138365357483176e-01,4.405691902866821219e-01
2.100799999999999912e+01,2.436538019226349716e-01,4.589133300284382877e-02,-3.451633545091411515e-01,4.440991597061698659e-01
2.101999999999999957e+01,2.514474431177198821e-01,2.816411188890705422e-02,-3.347139322395997207e-01,4.471678659583545601e-01
2.103200000000000003e+01,2.583316831093030452e-01,9.879288019712691507e-03,-3.240859728728097133e-01,4.497593225370782877e-01
2.104400000000000048e+01,2.642653308059597639e-01,-8.922520502743879270e-03,-3.133012618709774544e-01,4.518582860843072813e-01
2.105600000000000094e+01,2.692085809514526695e-01,-2.819737644360094733e-02,-3.023829699750263944e-01,4.534503775706554829e-01
2.106800000000000139e+01,2.731232927085782691e-01,-4.789799758849159345e-02,-2.913556459307802826e-01,4.545222096673063872e-01
2.107999999999999829e+01,2.759732837015585472e-01,-6.797375378139619562e-02,-2.802451977739263689e-01,4.550615195695639770e-01
2.109199999999999875e+01,2.777246379092760953e-01,-8.837068970395349499e-02,-2.690788614888660057e-01,4.550573063415591646e-01
2.110399999999999920e+01,2.783460253552531016e-01,-1.090315762167641256e-01,-2.578851559048247477e-01,4.544999716516934241e-01
2.111599999999999966e+01,2.778090310714658173e-01,-1.298959929816862757e-01,-2.466938227719478460e-01,4.533814625628576067e-01
2.112800000000000011e+01,2.760884903305169114e-01,-1.509004449089018929e-01,-2.355357510739243820e-01,4.516954148350075804e-01
2.114000000000000057e+01,2.731628266555385376e-01,-1.719785147172480655e-01,-2.244428847839704255e-01,4.494372949957053387e-01
2.115200000000000102e+01,2.690143886422310948e-01,-1.930610535550309204e-01,-2.134481134595871687e-01,4.466045392430656458e-01
2.116400000000000148e+01,2.636297811776138755e-01,-2.140764111979343853e-01,-2.025851452988377543e-01,4.431966870721223972e-01
2.117599999999999838e+01,2.570001862317538577e-01,-2.349507068195608173e-01,-1.918883625462800557e-01,4.392155073675370613e-01
2.118799999999999883e+01,2.491216680496237679e-01,-2.556081407206823308e-01,-1.813926594379725865e-01,4.346651145906302860e-01
2.119999999999999929e+01,2.399954572987375578e-01,-2.759713467105411322e-01,-1.711332632084812677e-01,4.295520726149513746e-01
2.121199999999999974e+01,2.296282085525205574e-01,-2.959617840672764677e-01,-1.611455390428349621e-01,4.238854837395735764e-01
2.122400000000000020e+01,2.180322254273358018e-01,-3.155001671771457961e-01,-1.514647802360362394e-01,4.176770604401936482e-01
2.123600000000000065e+01,2.052256477583909999e-01,-3.345069300817308799e-01,-1.421259852126615097e-01,4.109411775108129938e-01
2.124800000000000111e+01,1.912325954098922365e-01,-3.529027222694535171e-01,-1.331636234489798898e-01,4.036949024078697046e-01
2.126000000000000156e+01,1.760832636774601612e-01,-3.706089311574529144e-01,-1.246113927178245928e-01,3.959580018368238918e-01
2.127199999999999847e+01,1.598139657612584474e-01,-3.875482258498528787e-01,-1.165019704292514641e-01,3.877529229187808846e-01
2.128399999999999892e+01,1.424671184663874046e-01,-4.036451159585467963e-01,-1.088667621542638991e-01,3.791047476395922322e-01
2.129599999999999937e+01,1.240911681170038805e-01,-4.188265185634554855e-01,-1.017356506811036426e-01,3.700411197111538320e-01
2.130799999999999983e+01,1.047404546395338115e-01,-4.330223258017920074e-01,-9.513674915063743964e-02,3.605921434563226780e-01
2.132000000000000028e+01,8.447501285990556552e-02,-4.461659651383915737e-01,-8.909616193772693093e-02,3.507902548546631416e-01
2.133200000000000074e+01,6.336031124418925464e-02,-4.581949441080739316e-01,-8.363775697897832262e-02,3.406700654425611763e-01
2.134400000000000119e+01,4.146692956083183890e-02,-4.690513712569734928e-01,-7.878295318674446990e-02,3.302681803327933707e-01
2.135600000000000165e+01,1.887017821998077799e-02,-4.786824451582206152e-01,-7.455052643017021086e-02,3.196229921880669456e-01
2.136799999999999855e+01,-4.350336687844333361e-03,-4.870409037464747404e-01,-7.095643730561337903e-02,3.087744535320655070e-01
2.137999999999999901e+01,-2.811119741678972869e-02,-4.940854268059023391e-01,-6.801368356347978206e-02,2.977638302913966362e-01
2.139199999999999946e+01,-5.232570129542193221e-02,-4.997809852493241833e-01,-6.573217961316996094e-02,2.866334399146010514e-01
2.140399999999999991e+01,-7.690442281380599487e-02,-5.040991318263703391e-01,-6.411866500217681952e-02,2.754263777927137835e-01
2.141600000000000037e+01,-1.017558029007526177e-01,-5.070182290713020068e-01,-6.317664317315392630e-02,2.641862359957229955e-01
2.142800000000000082e+01,-1.267867566050649986e-01,-5.085236116161236941e-01,-6.290635115986516201e-02,2.529568185279858494e-01
2.144000000000000128e+01,-1.519032900009956999e-01,-5.086076814148854375e-01,-6.330476020758137035e-02,2.417818573851941710e-01
2.145199999999999818e+01,-1.770111169865135059e-01,-5.072699359103747252e-01,-6.436560661520600302e-02,2.307047336605010934e-01
2.146399999999999864e+01,-2.020162667433081094e-01,-5.045169306820790345e-01,-6.607945141474189099e-02,2.197682077970971315e-01
2.147599999999999909e+01,-2.268256729796622739e-01,-5.003621796015387257e-01,-6.843376684808175070e-02,2.090141628212187075e-01
2.148799999999999955e+01,-2.513477366755735298e-01,-4.948259969469605557e-01,-7.141304698922598670e-02,1.984833640192955329e-01
2.150000000000000000e+01,-2.754928548790950837e-01,-4.879352872555862697e-01,-7.499893930768569694e-02,1.882152380542792269e-01
2.151200000000000045e+01,-2.991739091456041555e-01,-4.797232898870316120e-01,-7.917039348919821529e-02,1.782476739599085369e-01
2.152400000000000091e+01,-3.223067084448619779e-01,-4.702292863061020012e-01,-8.390382343323397885e-02,1.686168478193127429e-01
2.153600000000000136e+01,-3.448103827599681703e-01,-4.594982789491055541e-01,-8.917327804051046469e-02,1.593570722379157034e-01
2.154800000000000182e+01,-3.666077251450950980e-01,-4.475806511973939861e-01,-9.495061619253909735e-02,1.505006709707509827e-01
2.155999999999999872e+01,-3.876254816741845355e-01,-4.345318184355614899e-01,-1.012056812119823679e-01,1.420778782700919118e-01
2.157199999999999918e+01,-4.077945904865771798e-01,-4.204118804121312891e-01,-1.079064700791466519e-01,1.341167616866014156e-01
2.158399999999999963e+01,-4.270503730081591232e-01,-4.052852851401005929e-01,-1.150192927686078948e-01,1.266431661885879245e-01
2.159600000000000009e+01,-4.453326823997852957e-01,-3.892205143623575503e-01,-1.225089172650277447e-01,1.196806765580128579e-01
2.160800000000000054e+01,-4.625860163644539003e-01,-3.722898001459721273e-01,-1.303386961281787770e-01,1.132505940730303001e-01
2.162000000000000099e+01,-4.787596036493439455e-01,-3.545688814251072296e-01,-1.384706709195791530e-01,1.073719224867814431e-01
2.163200000000000145e+01,-4.938074759276634973e-01,-3.361368082354603271e-01,-1.468656514042687988e-01,1.020613572499403654e-01
2.164399999999999835e+01,-5.076885392606410585e-01,-3.170757998905976982e-01,-1.554832672411363415e-01,9.733327079103606949e-02
2.165599999999999881e+01,-5.203666620351152794e-01,-2.974711613264111598e-01,-1.642819909331248995e-01,9.319968545909856905e-02
2.166799999999999926e+01,-5.318107991386351596e-01,-2.774112591204686007e-01,-1.732191322049220217e-01,8.967022445576389167e-02
2.167999999999999972e+01,-5.419951751228483383e-01,-2.569875550584239665e-01,-1.822508058174215628e-01,8.675202976790324927e-02
2.169200000000000017e+01,-5.508995520981421201e-01,-2.362946902941211458e-01,-1.913318772484137453e-01,8.444963482345334282e-02
2.170400000000000063e+01,-5.585096108684752814e-01,-2.154306067933679791e-01,-2.004158938279340108e-01,8.276477845303098491e-02
2.171600000000000108e+01,-5.648174759653172838e-01,-1.944966844839540743e-01,-2.094550129904993729e-01,8.169614595125523904e-02
2.172800000000000153e+01,-5.698224161509388708e-01,-1.735978619629432451e-01,-2.183999444700019388e-01,8.123902290867678067e-02
2.173999999999999844e+01,-5.735317507091383105e-01,-1.528426954108929037e-01,-2.271999296506654331e-01,8.138484849111728148e-02
2.175199999999999889e+01,-5.759619871125222224e-01,-1.323432943889036040e-01,-2.358027889310933267e-01,8.212065762388998102e-02
2.176399999999999935e+01,-5.771402056997103625e-01,-1.122150546968578161e-01,-2.441550766880584977e-01,8.342840694372559429e-02
2.177599999999999980e+01,-5.771056896201018915e-01,-9.257608837079395192e-02,-2.522023927286696776e-01,8.528418845751219168e-02
2.178800000000000026e+01,-5.759117710135009949e-01,-7.354623118399049309e-02,-2.598899079506201693e-01,8.765734875891109668e-02
2.180000000000000071e+01,-5.736278247267124764e-01,-5.524549220318971526e-02,-2.671631685010585344e-01,9.050955150496023394e-02
2.181200000000000117e+01,-5.703412870958886050e-01,-3.779180352754883676e-02,-2.739692443011625955e-01,9.379384733732346047e-02
2.182400000000000162e+01,-5.661595095532938604e-01,-2.129793901507986281e-02,-2.802582806150931138e-01,9.745384827406659844e-02
2.183599999999999852e+01,-5.612111786099414079e-01,-5.867508254093678835e-03,-2.859854907555672288e-01,1.014231407808626612e-01
2.184799999999999898e+01,-5.556469540530952766e-01,8.409993315424718618e-03,-2.911135891874848669e-01,1.056251085892778996e-01
2.185999999999999943e+01,-5.496389120395017702e-01,2.146497687372683760e-02,-2.956156035048441710e-01,1.099733647617997939e-01
