Frequency, Re(SMin1Min1), Im(SMin1Min1), Re(SMax1Min1), Im(SMax1Min1)
2.000000000000000000e+01,-3.541422323891745827e-01,1.696210857859019594e-01,-5.750085213458286937e-01,8.218498193423810771e-02
2.001200000000000045e+01,-3.442553601410501818e-01,1.811591278285794027e-01,-5.778449839270694000e-01,8.997375192477993777e-02
2.002400000000000091e+01,-3.340506043416463511e-01,1.923469215810568178e-01,-5.804707322778062117e-01,9.784369591513868147e-02
2.003600000000000136e+01,-3.235398313668866321e-01,2.031755770883904855e-01,-5.828839538671289899e-01,1.057881347953579659e-01
2.004799999999999827e+01,-3.127351004417225355e-01,2.136366630948957623e-01,-5.850830788496358403e-01,1.138004023280559385e-01
2.005999999999999872e+01,-3.016486417777329287e-01,2.237222056523238689e-01,-5.870667736424767247e-01,1.218738554951207531e-01
2.007199999999999918e+01,-2.902928353425344721e-01,2.334246855052966030e-01,-5.888339340214553408e-01,1.300018841620190491e-01
2.008399999999999963e+01,-2.786801903302854044e-01,2.427370343193759605e-01,-5.903836777952566894e-01,1.381779200416883568e-01
2.009600000000000009e+01,-2.668233253972006058e-01,2.516526298210876589e-01,-5.917153371164539655e-01,1.463954449448024997e-01
2.010800000000000054e+01,-2.547349497199958290e-01,2.601652899210267211e-01,-5.928284504872952665e-01,1.546479983077427012e-01
2.012000000000000099e+01,-2.424278449290386273e-01,2.682692658945197706e-01,-5.937227545170544740e-01,1.629291839940495423e-01
2.013200000000000145e+01,-2.299148479626142716e-01,2.759592346949588659e-01,-5.943981754864999800e-01,1.712326763691430220e-01
2.014399999999999835e+01,-2.172088348826487492e-01,2.832302904773703611e-01,-5.948548207732414772e-01,1.795522256519577198e-01
2.015599999999999881e+01,-2.043227056865750957e-01,2.900779354098772522e-01,-5.950929701899548840e-01,1.878816625506255777e-01
2.016799999999999926e+01,-1.912693701448903993e-01,2.964980698515386481e-01,-5.951130672853351955e-01,1.962149021925645720e-01
2.017999999999999972e+01,-1.780617346881167573e-01,3.024869819753653877e-01,-5.949157106554564534e-01,2.045459473622540103e-01
2.019200000000000017e+01,-1.647126903622782301e-01,3.080413369147989022e-01,-5.945016453108998844e-01,2.128688910625650410e-01
2.020400000000000063e+01,-1.512351018667050517e-01,3.131581655117398055e-01,-5.938717541425472257e-01,2.211779184178176982e-01
2.021600000000000108e+01,-1.376417976834128087e-01,3.178348527433257353e-01,-5.930270495265571595e-01,2.294673079387858916e-01
2.022800000000000153e+01,-1.239455613029606801e-01,3.220691259037361531e-01,-5.919686651065249050e-01,2.377314321715429668e-01
2.023999999999999844e+01,-1.101591235473341063e-01,3.258590426162221720e-01,-5.906978477883406686e-01,2.459647577535806207e-01
2.025199999999999889e+01,-9.629515598647749031e-02,3.292029787490066139e-01,-5.892159499809113132e-01,2.541618449017540859e-01
2.026399999999999935e+01,-8.236626544146571915e-02,3.320996163074168006e-01,-5.875244221134777733e-01,2.623173463576496944e-01
2.027599999999999980e+01,-6.838498956367794479e-02,3.345479313730598259e-01,-5.856248054580269757e-01,2.704260058166808034e-01
2.028800000000000026e+01,-5.436379347632033093e-02,3.365471821590994006e-01,-5.835187252830391635e-01,2.784826558677639952e-01
2.030000000000000071e+01,-4.031506746138170671e-02,3.380968972491461000e-01,-5.812078843628236680e-01,2.864822154708203117e-01
2.031200000000000117e+01,-2.625112567268314892e-02,3.391968640852623396e-01,-5.786940568647134242e-01,2.944196869995120425e-01
2.032400000000000162e+01,-1.218420585268647875e-02,3.398471177695904233e-01,-5.759790826345442261e-01,3.022901528767448220e-01
2.033599999999999852e+01,1.873529971344638050e-03,3.400479302415273519e-01,-5.730648618992429943e-01,3.100887718303448337e-01
2.034799999999999898e+01,1.590999383849661664e-02,3.397997998916860163e-01,-5.699533504038084564e-01,3.178107747962679586e-01
2.035999999999999943e+01,2.991316928145882140e-02,3.391034416717170208e-01,-5.666465549986222650e-01,3.254514604963470448e-01
2.037199999999999989e+01,4.387110786062348861e-02,3.379597777580395923e-01,-5.631465296918378716e-01,3.330061907174603486e-01
2.038400000000000034e+01,5.777192483744220813e-02,3.363699288259992537e-01,-5.594553721805655133e-01,3.404703853185575002e-01
2.039600000000000080e+01,7.160379402130948034e-02,3.343352059900223661e-01,-5.555752208737188003e-01,3.478395169917557483e-01
2.040800000000000125e+01,8.535494182584556222e-02,3.318571034641018547e-01,-5.515082524186444290e-01,3.551091058033453707e-01
2.042000000000000171e+01,9.901364057215186754e-02,3.289372919961912056e-01,-5.472566797431547281e-01,3.622747135403111551e-01
2.043199999999999861e+01,1.125682010781535181e-01,3.255776131293185993e-01,-5.428227506241247724e-01,3.693319378876842030e-01
2.044399999999999906e+01,1.260069645750230560e-01,3.217800743417677523e-01,-5.382087467936081948e-01,3.762764064619383286e-01
2.045599999999999952e+01,1.393182939930525943e-01,3.175468451181440721e-01,-5.334169835932750514e-01,3.831037707254744129e-01
2.046799999999999997e+01,1.524905646616577515e-01,3.128802540030735657e-01,-5.284498101879915311e-01,3.898096998073555253e-01
2.048000000000000043e+01,1.655121544697116531e-01,3.077827866891603148e-01,-5.233096103494946361e-01,3.963898742555164167e-01
2.049200000000000088e+01,1.783714335348577928e-01,3.022570851909880951e-01,-5.179988038213376722e-01,4.028399797459932818e-01
2.050400000000000134e+01,1.910567534326090555e-01,2.963059481571895803e-01,-5.125198482766424313e-01,4.091557007751629449e-01
2.051599999999999824e+01,2.035564360387475680e-01,2.899323323731039515e-01,-5.068752418805718696e-01,4.153327143615760386e-01
2.052799999999999869e+01,2.158587620413802977e-01,2.831393555070010892e-01,-5.010675264699436804e-01,4.213666837848127900e-01
2.053999999999999915e+01,2.279519591821512758e-01,2.759303001536258515e-01,-4.950992913629441161e-01,4.272532523897602519e-01
2.055199999999999960e+01,2.398241902898570199e-01,2.683086192294872330e-01,-4.889731778124428718e-01,4.329880374860355374e-01
2.056400000000000006e+01,2.514635411735606230e-01,2.602779427752047181e-01,-4.826918841170140806e-01,4.385666243737009196e-01
2.057600000000000051e+01,2.628580084468801759e-01,2.518420862210485334e-01,-4.762581714043304659e-01,4.439845605282352614e-01
2.058800000000000097e+01,2.739954873600836116e-01,2.430050601726658488e-01,-4.696748701021387640e-01,4.492373499797345793e-01
2.060000000000000142e+01,2.848637597222028472e-01,2.337710817748021586e-01,-4.629448871125024234e-01,4.543204479236839233e-01
2.061199999999999832e+01,2.954504820015388389e-01,2.241445877114850160e-01,-4.560712137053866688e-01,4.592292556032789852e-01
2.062399999999999878e+01,3.057431736998171834e-01,2.141302489017062327e-01,-4.490569341479223042e-01,4.639591155062953165e-01
2.063599999999999923e+01,3.157292061027475727e-01,2.037329869499423796e-01,-4.419052350858246325e-01,4.685053069228038436e-01
2.064799999999999969e+01,3.253957915181756033e-01,1.929579924108176248e-01,-4.346194156932914332e-01,4.728630419137982988e-01
2.066000000000000014e+01,3.347299731220548802e-01,1.818107449268349107e-01,-4.272028986074350998e-01,4.770274617448257426e-01
2.067200000000000060e+01,3.437186155425931977e-01,1.702970352972333345e-01,-4.196592416626361843e-01,4.809936338432316272e-01
2.068400000000000105e+01,3.523483963237309946e-01,1.584229895345004024e-01,-4.119921504392446976e-01,4.847565493424891292e-01
2.069600000000000151e+01,3.606057984211089584e-01,1.461950949628306184e-01,-4.042054916396733977e-01,4.883111212823862401e-01
2.070799999999999841e+01,3.684771038964282930e-01,1.336202284097871562e-01,-3.963033073030730047e-01,4.916521835395349926e-01
2.071999999999999886e+01,3.759483889900482323e-01,1.207056865382143962e-01,-3.882898298673608806e-01,4.947744905688102879e-01
2.073199999999999932e+01,3.830055207664705419e-01,1.074592183602412349e-01,-3.801694980844054217e-01,4.976727180428275887e-01
2.074399999999999977e+01,3.896341555434051918e-01,9.388905996837891565e-02,-3.719469737903414730e-01,5.003414644835221248e-01
2.075600000000000023e+01,3.958197393319336510e-01,8.000397151055110845e-02,-3.636271595285441305e-01,5.027752539872011317e-01
2.076800000000000068e+01,4.015475105333001782e-01,6.581327642569316516e-02,-3.552152170172846457e-01,5.049685401520913608e-01
2.078000000000000114e+01,4.068025051567248918e-01,5.132690294440045431e-02,-3.467165864476532411e-01,5.069157113253975888e-01
2.079200000000000159e+01,4.115695648424399500e-01,3.655542784456526639e-02,-3.381370065897433830e-01,5.086110972951365383e-01
2.080399999999999849e+01,4.158333479946356159e-01,2.151012243482419012e-02,-3.294825356762437485e-01,5.100489775604476472e-01
2.081599999999999895e+01,4.195783443502512089e-01,6.203000718527407892e-03,-3.207595730223435915e-01,5.112235913226543804e-01
2.082799999999999940e+01,4.227888933311400033e-01,-9.353130332364170338e-03,-3.119748813291617906e-01,5.121291493479426249e-01
2.083999999999999986e+01,4.254492065490869113e-01,-2.514461849103890104e-02,-3.031356096044035553e-01,5.127598478610011501e-01
2.085200000000000031e+01,4.275433948549374752e-01,-4.115691210565668862e-02,-2.942493166188341891e-01,5.131098846372158517e-01
2.086400000000000077e+01,4.290555003446686055e-01,-5.737450420890889691e-02,-2.853239947999275938e-01,5.131734774688190281e-01
2.087600000000000122e+01,4.299695337558832042e-01,-7.378087511086525718e-02,-2.763680944448147492e-01,5.129448851876069471e-01
2.088800000000000168e+01,4.302695177077356936e-01,-9.035843372364835147e-02,-2.673905481131534367e-01,5.124184314331675649e-01
2.089999999999999858e+01,4.299395362549706112e-01,-1.070884579168783768e-01,-2.584007950366896678e-01,5.115885313607758667e-01
2.091199999999999903e+01,4.289637912419761445e-01,-1.239510342589914271e-01,-2.494088053559155860e-01,5.104497214868800592e-01
2.092399999999999949e+01,4.273266659548619062e-01,-1.409249975617527240e-01,-2.404251039653700350e-01,5.089966928720979222e-01
2.093599999999999994e+01,4.250127965775701844e-01,-1.579878707140142113e-01,-2.314607937174482655e-01,5.072243278414032552e-01
2.094800000000000040e+01,4.220071519611135469e-01,-1.751158053658165015e-01,-2.225275777004087352e-01,5.051277404383865965e-01
2.096000000000000085e+01,4.182951222120574464e-01,-1.922835241059190625e-01,-2.136377802692342176e-01,5.027023208045031666e-01
2.097200000000000131e+01,4.138626165961674097e-01,-2.094642648644469973e-01,-2.048043664683880383e-01,4.999437836646311029e-01
2.098400000000000176e+01,4.086961712344555075e-01,-2.266297283676731444e-01,-1.960409594433416558e-01,4.968482210864711979e-01
2.099599999999999866e+01,4.027830670402432478e-01,-2.437500295736947376e-01,-1.873618553932023811e-01,4.934121596626451223e-01
2.100799999999999912e+01,3.961114583058210625e-01,-2.607936541256166141e-01,-1.787820355701108810e-01,4.896326222402223038e-01
2.101999999999999957e+01,3.886705122942781809e-01,-2.777274209720094755e-01,-1.703171747827265103e-01,4.855071942920906047e-01
2.103200000000000003e+01,3.804505601242728074e-01,-2.945164524224986313e-01,-1.619836458113308730e-01,4.810340949873598282e-01
2.104400000000000048e+01,3.714432591514081894e-01,-3.111241530276105394e-01,-1.537985190917442457e-01,4.762122529732094045e-01
2.105600000000000094e+01,3.616417669475082697e-01,-3.275121987957815284e-01,-1.457795569747636633e-01,4.710413868274523352e-01
2.106800000000000139e+01,3.510409268568152052e-01,-3.436405383845425043e-01,-1.379452018182114326e-01,4.655220900789823757e-01
2.107999999999999829e+01,3.396374649642631138e-01,-3.594674080256017312e-01,-1.303145571208845221e-01,4.596559206214757554e-01
2.109199999999999875e+01,3.274301981438192954e-01,-3.749493620623752244e-01,-1.229073608627769265e-01,4.534454942636885200e-01
2.110399999999999920e+01,3.144202526632193795e-01,-3.900413210906950034e-01,-1.157439501753414063e-01,4.468945820669397162e-01
2.111599999999999966e+01,3.006112926035969801e-01,-4.046966397961813122e-01,-1.088452164304422320e-01,4.400082110163784921e-01
2.112800000000000011e+01,2.860097571081084977e-01,-4.188671966711344230e-01,-1.022325498089263762e-01,4.327927674573511796e-01
2.114000000000000057e+01,2.706251052015668512e-01,-4.325035078665893096e-01,-9.592777239076773210e-02,4.252561026012993683e-01
2.115200000000000102e+01,2.544700666233110642e-01,-4.455548674869471149e-01,-8.995305880053527936e-02,4.174076392673528590e-01
2.116400000000000148e+01,2.375608967882648914e-01,-4.579695166612627877e-01,-8.433084344627560236e-02,4.092584788763548032e-01
2.117599999999999838e+01,2.199176336369231544e-01,-4.696948437222525086e-01,-7.908371340874358058e-02,4.008215075539634520e-01
2.118799999999999883e+01,2.015643537550559361e-01,-4.806776177869152011e-01,-7.423428607316683026e-02,3.921115000294131403e-01
2.119999999999999929e+01,1.825294247400589542e-01,-4.908642579565982156e-01,-6.980507064941962603e-02,3.831452198374327156e-01
2.121199999999999974e+01,1.628457503647231241e-01,-5.002011402350891034e-01,-6.581831280031741338e-02,3.739415141436058798e-01
2.122400000000000020e+01,1.425510046439181222e-01,-5.086349440960507007e-01,-6.229582169378464901e-02,3.645214013196115821e-01
2.123600000000000065e+01,1.216878504473159484e-01,-5.161130404119819159e-01,-5.925877891444907009e-02,3.549081491952437162e-01
2.124800000000000111e+01,1.003041378251789406e-01,-5.225839221814145841e-01,-5.672752881560109983e-02,3.451273417104218644e-01
2.126000000000000156e+01,7.845307672689622036e-02,-5.279976791553671056e-01,-5.472135006511193861e-02,3.352069314836016445e-01
2.127199999999999847e+01,5.619337829602658735e-02,-5.323065170639448285e-01,-5.325820834064888543e-02,3.251772756041860779e-01
2.128399999999999892e+01,3.358935842297116475e-02,-5.354653216748878064e-01,-5.235449036242813270e-02,3.150711517464642730e-01
2.129599999999999937e+01,1.071099672867144824e-02,-5.374322673725157040e-01,-5.202471971840033627e-02,3.049237514918153313e-01
2.130799999999999983e+01,-1.236605636009507035e-02,-5.381694693211878100e-01,-5.228125524046866451e-02,2.947726475343414587e-01
2.132000000000000028e+01,-3.556053230050655600e-02,-5.376436775630503151e-01,-5.313397303569857705e-02,2.846577312330295095e-01
2.133200000000000074e+01,-5.878566526840916379e-02,-5.358270105833720098e-01,-5.458993366962566762e-02,2.746211167604100112e-01
2.134400000000000119e+01,-8.194939004677234684e-02,-5.326977249414499571e-01,-5.665303644818631829e-02,2.647070078839741658e-01
2.135600000000000165e+01,-1.049546264110100963e-01,-5.282410164883086789e-01,-5.932366326172583415e-02,2.549615232032601542e-01
2.136799999999999855e+01,-1.276996599901026874e-01,-5.224498474443335372e-01,-6.259831505374770233e-02,2.454324754555302635e-01
2.137999999999999901e+01,-1.500786301105352383e-01,-5.153257921517619966e-01,-6.646924467733496267e-02,2.361691003024074809e-01
2.139199999999999946e+01,-1.719821356317000338e-01,-5.068798925999588034e-01,-7.092409072664086767e-02,2.272217298299278876e-01
2.140399999999999991e+01,-1.932979702246801212e-01,-4.971335127862521186e-01,-7.594551790718810647e-02,2.186414058533252547e-01
2.141600000000000037e+01,-2.139119988777042625e-01,-4.861191785528372611e-01,-8.151087066821827154e-02,2.104794280445672905e-01
2.142800000000000082e+01,-2.337091875513901129e-01,-4.738813866539287045e-01,-8.759184819684733003e-02,2.027868319373146433e-01
2.144000000000000128e+01,-2.525747977373282160e-01,-4.604773633776725883e-01,-9.415421050047764751e-02,1.956137920711802647e-01
2.145199999999999818e+01,-2.703957570309633573e-01,-4.459777490008937084e-01,-1.011575272089458161e-01,1.890089459973545716e-01
2.146399999999999864e+01,-2.870622154936366965e-01,-4.304671796376245418e-01,-1.085549829273194378e-01,1.830186356896503219e-01
2.147599999999999909e+01,-3.024692952633165066e-01,-4.140447326401177075e-01,-1.162932554581107697e-01,1.776860642271809454e-01
2.148799999999999955e+01,-3.165190372236713623e-01,-3.968241956752317501e-01,-1.243124859469893345e-01,1.730503676058692264e-01
2.150000000000000000e+01,-3.291225431323240302e-01,-3.789341130841299976e-01,-1.325463628952953110e-01,1.691456043928256936e-01
2.151200000000000045e+01,-3.402023039636205559e-01,-3.605175564381152276e-01,-1.409223448603537654e-01,1.659996698762438438e-01
2.152400000000000091e+01,-3.496946948364839658e-01,-3.417315598234977880e-01,-1.493620492700033497e-01,1.636331466024436299e-01
2.153600000000000136e+01,-3.575526033030836381e-01,-3.227461550659349587e-01,-1.577818367332368410e-01,1.620581099230873623e-01
2.154800000000000182e+01,-3.637481406146375051e-01,-3.037429388746794579e-01,-1.660936210218060261e-01,1.612769155219547779e-01
2.155999999999999872e+01,-3.682753647407281949e-01,-2.849131041028956091e-01,-1.742059338740544749e-01,1.612810058456444207e-01
2.157199999999999918e+01,-3.711529196789954410e-01,-2.664548726397404366e-01,-1.820252701504148640e-01,1.620497837154344645e-01
2.158399999999999963e+01,-3.724264688198805073e-01,-2.485702797604045500e-01,-1.894577317856673271e-01,1.635496136463510941e-01
2.159600000000000009e+01,-3.721707724785581761e-01,-2.314612810105855234e-01,-1.964109775787444279e-01,1.657330236632676423e-01
2.160800000000000054e+01,-3.704912337841579917e-01,-2.153251846231973576e-01,-2.027964694277197277e-01,1.685381913526759479e-01
2.162000000000000099e+01,-3.675247165851419084e-01,-2.003494561604862445e-01,-2.085319837961882861e-01,1.718888057193702634e-01
2.163200000000000145e+01,-3.634394285311515760e-01,-1.867059974987577142e-01,-2.135443302233825391e-01,1.756943989096769465e-01
2.164399999999999835e+01,-3.584336673407488849e-01,-1.745450676465493400e-01,-2.177721876610732576e-01,1.798512365552835668e-01
2.165599999999999881e+01,-3.527332538277528906e-01,-1.639890841602849314e-01,-2.211689365219439984e-01,1.842438400031884971e-01
2.166799999999999926e+01,-3.465875259936760933e-01,-1.551266144432159877e-01,-2.237053329456996642e-01,1.887471862027521596e-01
2.167999999999999972e+01,-3.402638467058470284e-01,-1.480069268106208591e-01,-2.253718464265462018e-01,1.932295908422616837e-01
2.169200000000000017e+01,-3.340406819777439473e-01,-1.426355108678515893e-01,-2.261804678104344102e-01,1.975562285460610301e-01
2.170400000000000063e+01,-3.281994318140781242e-01,-1.389709840410429942e-01,-2.261657969624682463e-01,2.015931838820547439e-01
2.171600000000000108e+01,-3.230153299611988604e-01,-1.369237662485203177e-01,-2.253852422872772709e-01,2.052118643124188901e-01
2.172800000000000153e+01,-3.187478569872013723e-01,-1.363568220763179961e-01,-2.239182097176050934e-01,2.082935488309391459e-01
2.173999999999999844e+01,-3.156312142157834955e-01,-1.370886402956446037e-01,-2.218642254812648873e-01,2.107338027658209600e-01
2.175199999999999889e+01,-3.138654654758190610e-01,-1.388984530263628336e-01,-2.193400197909382010e-01,2.124464686035587024e-01
2.176399999999999935e+01,-3.136089544957002540e-01,-1.415335082379743925e-01,-2.164756887851837230e-01,2.133669510459755003e-01
2.177599999999999980e+01,-3.149725406273821138e-01,-1.447180226658831559e-01,-2.134101382024446436e-01,2.134545543285089886e-01
2.178800000000000026e+01,-3.180160670700382664e-01,-1.481632831449692378e-01,-2.102860823080570651e-01,2.126936986482057534e-01
2.180000000000000071e+01,-3.227472972158823006e-01,-1.515782560364271336e-01,-2.072449150462162271e-01,2.110939329147712706e-01
2.181200000000000117e+01,-3.291233483945800176e-01,-1.546800229937281002e-01,-2.044217805773276553e-01,2.086887615670973140e-01
2.182400000000000162e+01,-3.370544453196143708e-01,-1.572033924465755517e-01,-2.019411458483660882e-01,2.055334006418240433e-01
2.183599999999999852e+01,-3.464096348847622853e-01,-1.589091339354089527e-01,-1.999131227288429846e-01,2.017016600432828544e-01
2.184799999999999898e+01,-3.570239712934648590e-01,-1.595904307098230668e-01,-1.984307102295377601e-01,1.972822054442793793e-01
2.185999999999999943e+01,-3.687066085760019596e-01,-1.590773221577496122e-01,-1.975680398231321189e-01,1.923744794140361258e-01
