Frequency, Re(SMin1Min1), Im(SMin1Min1), Re(SMax1Min1), Im(SMax1Min1)
2.000000000000000000e+01,-3.520951984962790715e-01,1.505817899228180656e-01,-5.653225802637740216e-01,7.989503492455007905e-02
2.001200000000000045e+01,-3.419919729665547581e-01,1.627049892322683100e-01,-5.683973429621457241e-01,8.791628375216808955e-02
2.002400000000000091e+01,-3.315230686549150985e-01,1.744511235520023740e-01,-5.712409895887700095e-01,9.603435755117473160e-02
2.003600000000000136e+01,-3.207022956595019236e-01,1.858086558678300193e-01,-5.738509694162891028e-01,1.042414316599822727e-01
2.004799999999999827e+01,-3.095437738468350686e-01,1.967666452964591528e-01,-5.762250366824878123e-01,1.125296674556506699e-01
2.005999999999999872e+01,-2.980619006374777280e-01,2.073147488730561205e-01,-5.783612443383886470e-01,1.208912264314840473e-01
2.007199999999999918e+01,-2.862713195762542906e-01,2.174432212972502720e-01,-5.802579370664301406e-01,1.293182834799265768e-01
2.008399999999999963e+01,-2.741868898203587146e-01,2.271429127456344177e-01,-5.819137436455774637e-01,1.378030393457971570e-01
2.009600000000000009e+01,-2.618236566669806531e-01,2.364052648665263823e-01,-5.833275687407781795e-01,1.463377322217619403e-01
2.010800000000000054e+01,-2.491968232298858443e-01,2.452223050791462466e-01,-5.844985841941774396e-01,1.549146484647333233e-01
2.012000000000000099e+01,-2.363217233621852098e-01,2.535866393046714018e-01,-5.854262198949355955e-01,1.635261324183468479e-01
2.013200000000000145e+01,-2.232137959103120961e-01,2.614914432605394135e-01,-5.861101543033768735e-01,1.721645953328474477e-01
2.014399999999999835e+01,-2.098885603721782900e-01,2.689304524524261386e-01,-5.865503047036518813e-01,1.808225233795489051e-01
2.015599999999999881e+01,-1.963615940205091226e-01,2.758979509999367474e-01,-5.867468172571373985e-01,1.894924847625342468e-01
2.016799999999999926e+01,-1.826485105409731691e-01,2.823887594330780626e-01,-5.867000569264526622e-01,1.981671359352873973e-01
2.017999999999999972e+01,-1.687649402233794560e-01,2.883982215963361573e-01,-5.864105973373878733e-01,2.068392269347149592e-01
2.019200000000000017e+01,-1.547265117336701634e-01,2.939221907963587843e-01,-5.858792106431569557e-01,2.155016058492182363e-01
2.020400000000000063e+01,-1.405488354841241405e-01,2.989570153274103692e-01,-5.851068574523384802e-01,2.241472224413627590e-01
2.021600000000000108e+01,-1.262474886096980331e-01,3.034995235066035857e-01,-5.840946768786712262e-01,2.327691309491432270e-01
2.022800000000000153e+01,-1.118380015492191210e-01,3.075470083477696015e-01,-5.828439767675903660e-01,2.413604920928802133e-01
2.023999999999999844e+01,-9.733584622186571000e-02,3.110972119995740193e-01,-5.813562241510277229e-01,2.499145743174527867e-01
2.025199999999999889e+01,-8.275642578145260553e-02,3.141483100695598440e-01,-5.796330359786522335e-01,2.584247543018519111e-01
2.026399999999999935e+01,-6.811506592392585491e-02,3.166988959516485735e-01,-5.776761701704069552e-01,2.668845167699590570e-01
2.027599999999999980e+01,-5.342700771679578797e-02,3.187479652702586708e-01,-5.754875170319071476e-01,2.752874536381073045e-01
2.028800000000000026e+01,-3.870740191333846975e-02,3.202949005495863699e-01,-5.730690910710926067e-01,2.836272625362324940e-01
2.030000000000000071e+01,-2.397130470896670709e-02,3.213394562119704090e-01,-5.704230232514615473e-01,2.918977447404765835e-01
2.031200000000000117e+01,-9.233674892279455926e-03,3.218817440044180467e-01,-5.675515537142551414e-01,3.000928025558878276e-01
2.032400000000000162e+01,5.490627661013886517e-03,3.219222189478447294e-01,-5.644570249992106881e-01,3.082064361884030990e-01
2.033599999999999852e+01,2.018684220697873621e-02,3.214616658987679010e-01,-5.611418757908482879e-01,3.162327401456960785e-01
2.034799999999999898e+01,3.484030612431714136e-02,3.205011868088022964e-01,-5.576086352148474923e-01,3.241658992066807077e-01
2.035999999999999943e+01,4.943645273934053896e-02,3.190421887628969722e-01,-5.538599177068024293e-01,3.320001839995208592e-01
2.037199999999999989e+01,6.396080805005678604e-02,3.170863728730459741e-01,-5.498984184735694614e-01,3.397299462280596316e-01
2.038400000000000034e+01,7.839898641668727186e-02,3.146357241003436278e-01,-5.457269095655734592e-01,3.473496135864282963e-01
2.039600000000000080e+01,9.273668528822273660e-02,3.116925020744290009e-01,-5.413482365767253723e-01,3.548536844015345859e-01
2.040800000000000125e+01,1.069596790366432182e-01,3.082592329759861749e-01,-5.367653159871187407e-01,3.622367220429920653e-01
2.042000000000000171e+01,1.210538119723570671e-01,3.043387025447240601e-01,-5.319811331623519601e-01,3.694933491399458036e-01
2.043199999999999861e+01,1.350049906162641422e-01,2.999339502723386564e-01,-5.269987410221557145e-01,3.766182416442006020e-01
2.044399999999999906e+01,1.487991753057323341e-01,2.950482648372875216e-01,-5.218212593900202201e-01,3.836061227790737438e-01
2.045599999999999952e+01,1.624223712135842157e-01,2.896851808358187896e-01,-5.164518750346729359e-01,3.904517569134661747e-01
2.046799999999999997e+01,1.758606188613429377e-01,2.838484768614913389e-01,-5.108938424135018863e-01,3.971499434009405083e-01
2.048000000000000043e+01,1.890999842099952422e-01,2.775421749835228491e-01,-5.051504851274496444e-01,4.036955104238897918e-01
2.049200000000000088e+01,2.021265484139903035e-01,2.707705416725376679e-01,-4.992251980963469116e-01,4.100833088834538454e-01
2.050400000000000134e+01,2.149263973267929451e-01,2.635380902207358766e-01,-4.931214504632240314e-01,4.163082063765357055e-01
2.051599999999999824e+01,2.274856108492727402e-01,2.558495847020748060e-01,-4.868427892357292119e-01,4.223650813021833650e-01
2.052799999999999869e+01,2.397902522155279936e-01,2.477100455166892645e-01,-4.803928436723789441e-01,4.282488171407481947e-01
2.053999999999999915e+01,2.518263573144229328e-01,2.391247565625678750e-01,-4.737753304210249317e-01,4.339542969505531533e-01
2.055199999999999960e+01,2.635799241494024003e-01,2.300992740761116095e-01,-4.669940594164173064e-01,4.394763981284936505e-01
2.056400000000000006e+01,2.750369025437428006e-01,2.206394371819344336e-01,-4.600529405433174679e-01,4.448099874828028155e-01
2.057600000000000051e+01,2.861831842036951512e-01,2.107513801907476281e-01,-4.529559910709645698e-01,4.499499166684093332e-01
2.058800000000000097e+01,2.970045932577605186e-01,2.004415466824613912e-01,-4.457073438639747587e-01,4.548910180377507828e-01
2.060000000000000142e+01,3.074868773968491009e-01,1.897167054097412819e-01,-4.383112563738111866e-01,4.596281009626377867e-01
2.061199999999999832e+01,3.176156997470492294e-01,1.785839680548043373e-01,-4.307721204138224014e-01,4.641559486858037875e-01
2.062399999999999878e+01,3.273766316146791699e-01,1.670508088695414339e-01,-4.230944727193884924e-01,4.684693157641223737e-01
2.063599999999999923e+01,3.367551462515410710e-01,1.551250862256061402e-01,-4.152830062930284449e-01,4.725629261690961758e-01
2.064799999999999969e+01,3.457366137977195830e-01,1.428150660970052832e-01,-4.073425825320911575e-01,4.764314721142055009e-01
2.066000000000000014e+01,3.543062975689792449e-01,1.301294474929272915e-01,-3.992782441341949928e-01,4.800696136828969118e-01
2.067200000000000060e+01,3.624493518665170000e-01,1.170773898525841600e-01,-3.910952287724570042e-01,4.834719793355463091e-01
2.068400000000000105e+01,3.701508214981383271e-01,1.036685424070310363e-01,-3.827989835289588583e-01,4.866331673784901057e-01
2.069600000000000151e+01,3.773956432118865112e-01,8.991307550463095710e-02,-3.743951800706513677e-01,4.895477484832571058e-01
2.070799999999999841e+01,3.841686492558223365e-01,7.582171388730374328e-02,-3.658897305469418493e-01,4.922102693493465297e-01
2.071999999999999886e+01,3.904545732908010214e-01,6.140577189344161024e-02,-3.572888041824793248e-01,4.946152576093232889e-01
2.073199999999999932e+01,3.962380588968463790e-01,4.667719055049944499e-02,-3.485988445321192564e-01,4.967572280804984364e-01
2.074399999999999977e+01,4.015036709277855498e-01,3.164857650517317877e-02,-3.398265873574258800e-01,4.986306904730850031e-01
2.075600000000000023e+01,4.062359099832509868e-01,1.633324272206667163e-02,-3.309790790756343970e-01,5.002301586702777580e-01
2.076800000000000068e+01,4.104192302815805604e-01,7.452508621747054715e-04,-3.220636957222639540e-01,5.015501617012275704e-01
2.078000000000000114e+01,4.140380612317571263e-01,-1.510054476963194545e-02,-3.130881623577450035e-01,5.025852565331859756e-01
2.079200000000000159e+01,4.170768330165786630e-01,-3.118845184390003564e-02,-3.040605728362804627e-01,5.033300428141345151e-01
2.080399999999999849e+01,4.195200065131038381e-01,-4.750189335645201016e-02,-2.949894098416518951e-01,5.037791797018118523e-01
2.081599999999999895e+01,4.213521078891911409e-01,-6.402335990397378662e-02,-2.858835650796967554e-01,5.039274049190922700e-01
2.082799999999999940e+01,4.225577682268021884e-01,-8.073436111514388502e-02,-2.767523595007735371e-01,5.037695561789787835e-01
2.083999999999999986e+01,4.231217685329064504e-01,-9.761537650580376368e-02,-2.676055634073331024e-01,5.033005951248696874e-01
2.085200000000000031e+01,4.230290905071470986e-01,-1.146458060688517883e-01,-2.584534162820991687e-01,5.025156339330082433e-01
2.086400000000000077e+01,4.222649734413049250e-01,-1.318039209560538938e-01,-2.493066461508854637e-01,5.014099647239586011e-01
2.087600000000000122e+01,4.208149776283847121e-01,-1.490668146594786303e-01,-2.401764882709477855e-01,4.999790919282476320e-01
2.088800000000000168e+01,4.186650546585325983e-01,-1.664103551551356641e-01,-2.310747029109226358e-01,4.982187677477483700e-01
2.089999999999999858e+01,4.158016249740213999e-01,-1.838091385304989056e-01,-2.220135919618289599e-01,4.961250308486334082e-01
2.091199999999999903e+01,4.122116630456978403e-01,-2.012364446810728236e-01,-2.130060140903901056e-01,4.936942484135052878e-01
2.092399999999999949e+01,4.078827905177603852e-01,-2.186641957287015769e-01,-2.040653981161967834e-01,4.909231616692451561e-01
2.093599999999999994e+01,4.028033776456391712e-01,-2.360629178861709809e-01,-1.952057542628839737e-01,4.878089349928785845e-01
2.094800000000000040e+01,3.969626533224359100e-01,-2.534017075680226050e-01,-1.864416829010717980e-01,4.843492086799908725e-01
2.096000000000000085e+01,3.903508239516929601e-01,-2.706482026265519258e-01,-1.777883803671181928e-01,4.805421554385054250e-01
2.097200000000000131e+01,3.829592013774925086e-01,-2.877685596739324447e-01,-1.692616414072979358e-01,4.763865406446387563e-01
2.098400000000000176e+01,3.747803400260293905e-01,-3.047274385358930693e-01,-1.608778577620147976e-01,4.718817863671516677e-01
2.099599999999999866e+01,3.658081833448964537e-01,-3.214879949685739424e-01,-1.526540123694866691e-01,4.670280391302559231e-01
2.100799999999999912e+01,3.560382195464690258e-01,-3.380118828574532608e-01,-1.446076686333702122e-01,4.618262413443602887e-01
2.101999999999999957e+01,3.454676465691329801e-01,-3.542592672043798907e-01,-1.367569541645921871e-01,4.562782062868938615e-01
2.103200000000000003e+01,3.340955460636182428e-01,-3.701888492951571630e-01,-1.291205383744918334e-01,4.503866964623750579e-01
2.104400000000000048e+01,3.219230660908548591e-01,-3.857579055240552002e-01,-1.217176032651389878e-01,4.441555051114918218e-01
2.105600000000000094e+01,3.089536120815277176e-01,-4.009223414323984658e-01,-1.145678067336306505e-01,4.375895405728583154e-01
2.106800000000000139e+01,2.951930454553828853e-01,-4.156367625942684052e-01,-1.076912376810992139e-01,4.306949131281564980e-01
2.107999999999999829e+01,2.806498891296196896e-01,-4.298545640521495570e-01,-1.011083621946317901e-01,4.234790238813320729e-01
2.109199999999999875e+01,2.653355389598409109e-01,-4.435280400676318013e-01,-9.483996005191727696e-02,4.159506551351740411e-01
2.110399999999999920e+01,2.492644799536073985e-01,-4.566085160054375036e-01,-8.890705078489219426e-02,4.081200616338965248e-01
2.111599999999999966e+01,2.324545058747497228e-01,-4.690465042121400585e-01,-8.333080853037405644e-02,3.999990619378067658e-01
2.112800000000000011e+01,2.149269406161323226e-01,-4.807918857820053238e-01,-7.813246489347108747e-02,3.916011290858704696e-01
2.114000000000000057e+01,1.967068594581576346e-01,-4.917941201207438051e-01,-7.333319905371100955e-02,3.829414795832455365e-01
2.115200000000000102e+01,1.778233080492186147e-01,-5.020024842220700556e-01,-6.895401435507160504e-02,3.740371596233539875e-01
2.116400000000000148e+01,1.583095166407772203e-01,-5.113663435606392582e-01,-6.501560063984837545e-02,3.649071273169143814e-01
2.117599999999999838e+01,1.382031067816698044e-01,-5.198354564770558683e-01,-6.153818161324574321e-02,3.555723295524808591e-01
2.118799999999999883e+01,1.175462873203965281e-01,-5.273603138845375238e-01,-5.854134656146331439e-02,3.460557719529069876e-01
2.119999999999999929e+01,9.638603617669264101e-02,-5.338925160605964004e-01,-5.604386579200162921e-02,3.363825802177910496e-01
2.121199999999999974e+01,7.477426391846900278e-02,-5.393851881980128438e-01,-5.406348922238808641e-02,3.265800509504754867e-01
2.122400000000000020e+01,5.276795471096085849e-02,-5.437934362732314009e-01,-5.261672761494496503e-02,3.166776898565114018e-01
2.123600000000000065e+01,3.042927968179665044e-02,-5.470748446409234855e-01,-5.171861604387546080e-02,3.067072349641023488e-01
2.124800000000000111e+01,7.825677158442401193e-03,-5.491900165721002036e-01,-5.138245929171699616e-02,2.967026622511971801e-01
2.126000000000000156e+01,-1.497010643011205573e-02,-5.501031587063207606e-01,-5.161955901219313081e-02,2.867001707627689355e-01
2.127199999999999847e+01,-3.788002195175779047e-02,-5.497827100678799317e-01,-5.243892267527195533e-02,2.767381439592537795e-01
2.128399999999999892e+01,-6.082077709744031918e-02,-5.482020158754330463e-01,-5.384695454127705339e-02,2.668570836468140417e-01
2.129599999999999937e+01,-8.370395884826042909e-02,-5.453400458189683331e-01,-5.584712921185085860e-02,2.570995123964165963e-01
2.130799999999999983e+01,-1.064362288177133908e-01,-5.411821557405496197e-01,-5.843964869993786837e-02,2.475098398574904490e-01
2.132000000000000028e+01,-1.289196026669676698e-01,-5.357208906747263910e-01,-6.162108447836948943e-02,2.381341878126612688e-01
2.133200000000000074e+01,-1.510518261962849329e-01,-5.289568259030885677e-01,-6.538400664470986334e-02,2.290201682071289213e-01
2.134400000000000119e+01,-1.727268622447025725e-01,-5.208994409590141927e-01,-6.971660322402639665e-02,2.202166077329419103e-01
2.135600000000000165e+01,-1.938355041418128311e-01,-5.115680192665846837e-01,-7.460229377518944049e-02,2.117732118801550767e-01
2.136799999999999855e+01,-2.142661330748161230e-01,-5.009925631768630261e-01,-8.001934293134510545e-02,2.037401607264688885e-01
2.137999999999999901e+01,-2.339056382382039834e-01,-4.892147104234569333e-01,-8.594048135794407628e-02,1.961676281907294150e-01
2.139199999999999946e+01,-2.526405198367878135e-01,-4.762886332984890281e-01,-9.233254391920106552e-02,1.891052161205455662e-01
2.140399999999999991e+01,-2.703581956494930938e-01,-4.622818959958761020e-01,-9.915613766647468630e-02,1.826012945551470645e-01
2.141600000000000037e+01,-2.869485315656453150e-01,-4.472762384572488981e-01,-1.063653556410659035e-01,1.767022399826436441e-01
2.142800000000000082e+01,-3.023056147977013497e-01,-4.313682466249148528e-01,-1.139075564249964340e-01,1.714515646285508510e-01
2.144000000000000128e+01,-3.163297847488258374e-01,-4.146698593062390081e-01,-1.217232338224588373e-01,1.668889320570095536e-01
2.145199999999999818e+01,-3.289299300424011752e-01,-3.973086511092340234e-01,-1.297460058682473605e-01,1.630490579742840951e-01
2.146399999999999864e+01,-3.400260501775331234e-01,-3.794278195990359315e-01,-1.379027572677157809e-01,1.599605004668749886e-01
2.147599999999999909e+01,-3.495520657934482189e-01,-3.611857937735489243e-01,-1.461139739388261638e-01,1.576443513570047195e-01
2.148799999999999955e+01,-3.574588418045784310e-01,-3.427553714251732053e-01,-1.542943119082874071e-01,1.561128502369187321e-01
2.150000000000000000e+01,-3.637173621330139217e-01,-3.243222867213557126e-01,-1.623534445332489584e-01,1.553679552364582994e-01
2.151200000000000045e+01,-3.683219633040029639e-01,-3.060831087218238156e-01,-1.701972307626981873e-01,1.553999196243588121e-01
2.152400000000000091e+01,-3.712934974300522994e-01,-2.882423793713294602e-01,-1.777292416051619861e-01,1.561859404942446128e-01
2.153600000000000136e+01,-3.726822548398927570e-01,-2.710089188850244857e-01,-1.848526707269826652e-01,1.576889640511722479e-01
2.154800000000000182e+01,-3.725704359976254598e-01,-2.545912604333859797e-01,-1.914726368667003797e-01,1.598567497201349441e-01
2.155999999999999872e+01,-3.710739262692292484e-01,-2.391922270269966067e-01,-1.974988596133567254e-01,1.626213100020850177e-01
2.157199999999999918e+01,-3.683431020850545523e-01,-2.250027324136509854e-01,-2.028486559460213612e-01,1.658988515278448928e-01
2.158399999999999963e+01,-3.645623910066588813e-01,-2.121949731062921785e-01,-2.074501638862536468e-01,1.695903414112921725e-01
2.159600000000000009e+01,-3.599483294782815923e-01,-2.009152754484067882e-01,-2.112456544331228203e-01,1.735828080349110514e-01
2.160800000000000054e+01,-3.547459179627628356e-01,-1.912769609424703754e-01,-2.141947482717325435e-01,1.777514537478859236e-01
2.162000000000000099e+01,-3.492231680811115901e-01,-1.833536819160499765e-01,-2.162773160003661765e-01,1.819626071788804644e-01
2.163200000000000145e+01,-3.436638694724091780e-01,-1.771737419225695720e-01,-2.174958174454125481e-01,1.860774761457403559e-01
2.164399999999999835e+01,-3.383587674948324575e-01,-1.727159341624331934e-01,-2.178768347254193827e-01,1.899565830790060084e-01
2.165599999999999881e+01,-3.335955208236837666e-01,-1.699073922428556982e-01,-2.174715812084878352e-01,1.934646817209749181e-01
2.166799999999999926e+01,-3.296479776453394295e-01,-1.686238427759936542e-01,-2.163552270831451685e-01,1.964758779298946545e-01
2.167999999999999972e+01,-3.267654435881841568e-01,-1.686924806701523283e-01,-2.146249696384933681e-01,1.988786214870664482e-01
2.169200000000000017e+01,-3.251626876589917003e-01,-1.698974695870751894e-01,-2.123968844958399882e-01,2.005802116791183809e-01
2.170400000000000063e+01,-3.250114248254362681e-01,-1.719878274984690258e-01,-2.098017097478244164e-01,2.015104751563191465e-01
2.171600000000000108e+01,-3.264339180895628467e-01,-1.746872239967313944e-01,-2.069798218734643924e-01,2.016243320539115869e-01
2.172800000000000153e+01,-3.294991666757199344e-01,-1.777050270253956454e-01,-2.040757440131437672e-01,2.009030601717506082e-01
2.173999999999999844e+01,-3.342219128622849755e-01,-1.807478212728452494e-01,-2.012325707921827911e-01,1.993541848888511769e-01
2.175199999999999889e+01,-3.405644413172953522e-01,-1.835305956995887111e-01,-1.985866928347638782e-01,1.970100476443507886e-01
2.176399999999999935e+01,-3.484408987750889919e-01,-1.857868647808152696e-01,-1.962631596596653427e-01,1.939252203441770295e-01
2.177599999999999980e+01,-3.577236619694322273e-01,-1.872771326380109347e-01,-1.943719403567286397e-01,1.901730216288357311e-01
2.178800000000000026e+01,-3.682511511884273836e-01,-1.877953051366965942e-01,-1.930052410092929216e-01,1.858414437022797017e-01
2.180000000000000071e+01,-3.798364352022101653e-01,-1.871728705462063769e-01,-1.922359319274100087e-01,1.810288123618684075e-01
2.181200000000000117e+01,-3.922759964662466681e-01,-1.852808739817777550e-01,-1.921170408155420117e-01,1.758394815020703772e-01
2.182400000000000162e+01,-4.053581084751737840e-01,-1.820298806709855777e-01,-1.926821907407027523e-01,1.703798150499652997e-01
2.183599999999999852e+01,-4.188703988916057108e-01,-1.773682438232494218e-01,-1.939468099947464774e-01,1.647546448367765426e-01
2.184799999999999898e+01,-4.326063103849182578e-01,-1.712790602938465967e-01,-1.959099155812232818e-01,1.590643231878185460e-01
2.185999999999999943e+01,-4.463703065762775757e-01,-1.637762154674319570e-01,-1.985562701421851872e-01,1.534024231298848906e-01
