Frequency, Re(SMin1Min1), Im(SMin1Min1), Re(SMax1Min1), Im(SMax1Min1)
2.000000000000000000e+01,-4.438324997355828083e-01,-3.610897733476037264e-01,-3.298860367416980854e-01,-5.060184004437520006e-02
2.001200000000000045e+01,-4.496148942551926875e-01,-3.452406281299661983e-01,-3.373838275252030727e-01,-4.926972941601495681e-02
2.002400000000000091e+01,-4.548810474958215333e-01,-3.291775583941559669e-01,-3.448762826129565529e-01,-4.767662295702351782e-02
2.003600000000000136e+01,-4.596187344860755974e-01,-3.129195803672915055e-01,-3.523538934991859994e-01,-4.582169434905863231e-02
2.004799999999999827e+01,-4.638165280134441959e-01,-2.964864917881610551e-01,-3.598070978360100036e-01,-4.370449041478913221e-02
2.005999999999999872e+01,-4.674638576554656089e-01,-2.798988352287793968e-01,-3.672262959620761213e-01,-4.132493239949900504e-02
2.007199999999999918e+01,-4.705510678974879624e-01,-2.631778559502419013e-01,-3.746018673166044421e-01,-3.868331636308175447e-02
2.008399999999999963e+01,-4.730694748151428874e-01,-2.463454540064391185e-01,-3.819241866795915485e-01,-3.578031270386568263e-02
2.009600000000000009e+01,-4.750114207026106539e-01,-2.294241303304847268e-01,-3.891836401812727719e-01,-3.261696484026815196e-02
2.010800000000000054e+01,-4.763703259173799887e-01,-2.124369265822015351e-01,-3.963706410267934244e-01,-2.919468708056014231e-02
2.012000000000000099e+01,-4.771407370917953306e-01,-1.954073586041238930e-01,-4.034756448851315458e-01,-2.551526171502633764e-02
2.013200000000000145e+01,-4.773183707386891572e-01,-1.783593434363574814e-01,-4.104891648947729954e-01,-2.158083536851338954e-02
2.014399999999999835e+01,-4.769001511554827877e-01,-1.613171199861981875e-01,-4.174017862423192171e-01,-1.739391465470193840e-02
2.015599999999999881e+01,-4.758842414224780382e-01,-1.443051636338920640e-01,-4.242041802742017587e-01,-1.295736117647641739e-02
2.016799999999999926e+01,-4.742700662091553498e-01,-1.273480952977483482e-01,-4.308871181057484789e-01,-8.274385919428703731e-03
2.017999999999999972e+01,-4.720583250614793225e-01,-1.104705857637139355e-01,-4.374414836962898234e-01,-3.348543087756391829e-03
2.019200000000000017e+01,-4.692509948641313544e-01,-9.369725641642460967e-02,-4.438582863633444009e-01,1.816276566213261088e-03
2.020400000000000063e+01,-4.658513202733339797e-01,-7.705257787002668668e-02,-4.501286727135407340e-01,7.215852866188286925e-03
2.021600000000000108e+01,-4.618637911141875163e-01,-6.056076837192507500e-02,-4.562439379725682365e-01,1.284564373592801505e-02
2.022800000000000153e+01,-4.572941060505061328e-01,-4.424569421516780926e-02,-4.621955367010696647e-01,1.870079306854048953e-02
2.023999999999999844e+01,-4.521491222669625776e-01,-2.813077471169071406e-02,-4.679750928881254435e-01,2.477613888611502127e-02
2.025199999999999889e+01,-4.464367914554484562e-01,-1.223889450696923065e-02,-4.735744094185618258e-01,3.106622173478068571e-02
2.026399999999999935e+01,-4.401660830496444410e-01,3.407673884063457809e-03,-4.789854769149285985e-01,3.756529326057546359e-02
2.027599999999999980e+01,-4.333468963741150537e-01,1.878733450910639174e-02,-4.842004819595405185e-01,4.426732491230401384e-02
2.028800000000000026e+01,-4.259899641183570451e-01,3.387921684132182143e-02,-4.892118147063341249e-01,5.116601671854028449e-02
2.030000000000000071e+01,-4.181067502484906995e-01,4.866320702702198880e-02,-4.940120758966309311e-01,5.825480608730062432e-02
2.031200000000000117e+01,-4.097093460615651717e-01,6.311996018135444808e-02,-4.985940832970239267e-01,6.552687657857694803e-02
2.032400000000000162e+01,-4.008103684934486988e-01,7.723089329174988305e-02,-5.029508775816303734e-01,7.297516660184921733e-02
2.033599999999999852e+01,-3.914228649492041412e-01,9.097815931898836639e-02,-5.070757276847656092e-01,8.059237799289332982e-02
2.034799999999999898e+01,-3.815602287875556886e-01,1.043446041702709298e-01,-5.109621356537674686e-01,8.837098442667021270e-02
2.035999999999999943e+01,-3.712361291405575914e-01,1.173137092628313144e-01,-5.146038410351496672e-01,9.630323962571063490e-02
2.037199999999999989e+01,-3.604644580027583367e-01,1.298695232996997795e-01,-5.179948248305689118e-01,1.043811853263939132e-01
2.038400000000000034e+01,-3.492592965306681729e-01,1.419965875484873186e-01,-5.211293130621411640e-01,1.125966589685231251e-01
2.039600000000000080e+01,-3.376349013382999864e-01,1.536798592776613959e-01,-5.240017799895387851e-01,1.209413010769473246e-01
2.040800000000000125e+01,-3.256057103586028623e-01,1.649046380238986531e-01,-5.266069510239775875e-01,1.294065623074087401e-01
2.042000000000000171e+01,-3.131863666786638412e-01,1.756564990365340473e-01,-5.289398053866656291e-01,1.379837101324359883e-01
2.043199999999999861e+01,-3.003917577530927363e-01,1.859212376085956075e-01,-5.309955785615895207e-01,1.466638351468544377e-01
2.044399999999999906e+01,-2.872370666368553871e-01,1.956848271310270559e-01,-5.327697645945390637e-01,1.554378569764789664e-01
2.045599999999999952e+01,-2.737378314145743619e-01,2.049333926838856623e-01,-5.342581182921944949e-01,1.642965297775062783e-01
2.046799999999999997e+01,-2.599100088512762974e-01,2.136532009172340263e-01,-5.354566573767431947e-01,1.732304473185101723e-01
2.048000000000000043e+01,-2.457700384351272638e-01,2.218306659602581887e-01,-5.363616646529661969e-01,1.822300476411398418e-01
2.049200000000000088e+01,-2.313349033812154565e-01,2.294523702212538374e-01,-5.369696902460335819e-01,1.912856173002251969e-01
2.050400000000000134e+01,-2.166221857483978386e-01,2.365050982527284740e-01,-5.372775539692739022e-01,2.003872951886160603e-01
2.051599999999999824e+01,-2.016501135173885961e-01,2.429758813893163061e-01,-5.372823478820991649e-01,2.095250759568716981e-01
2.052799999999999869e+01,-1.864375982124238385e-01,2.488520506232381191e-01,-5.369814390988669750e-01,2.186888130429199550e-01
2.053999999999999915e+01,-1.710042623566578879e-01,2.541212951448468815e-01,-5.363724729099063060e-01,2.278682213318872218e-01
2.055199999999999960e+01,-1.553704566844338331e-01,2.587717241103414390e-01,-5.354533762761388704e-01,2.370528794716915411e-01
2.056400000000000006e+01,-1.395572675572469001e-01,2.627919294645066350e-01,-5.342223617586273621e-01,2.462322318754402717e-01
2.057600000000000051e+01,-1.235865154278345535e-01,2.661710479953567909e-01,-5.326779319440740901e-01,2.553955904474115024e-01
2.058800000000000097e+01,-1.074807454684010011e-01,2.688988211913458937e-01,-5.308188844266553685e-01,2.645321360753466466e-01
2.060000000000000142e+01,-9.126321162870074111e-02,2.709656518715777840e-01,-5.286443174056102423e-01,2.736309199378966772e-01
2.061199999999999832e+01,-7.495785543801247730e-02,2.723626569402394781e-01,-5.261536359566875154e-01,2.826808646825171856e-01
2.062399999999999878e+01,-5.858928082892198713e-02,2.730817159555997131e-01,-5.233465590338318707e-01,2.916707655357104190e-01
2.063599999999999923e+01,-4.218272616205805126e-02,2.731155154938404439e-01,-5.202231272553240471e-01,3.005892914144017158e-01
2.064799999999999969e+01,-2.576403448975480084e-02,2.724575895195202602e-01,-5.167837115259152903e-01,3.094249861144468539e-01
2.066000000000000014e+01,-9.359622929486128423e-03,2.711023561522166170e-01,-5.130290225432676543e-01,3.181662696596022077e-01
2.067200000000000060e+01,7.003548159081722686e-03,2.690451513423067764e-01,-5.089601212331650304e-01,3.268014399019821825e-01
2.068400000000000105e+01,2.329800567791214319e-02,2.662822600482391278e-01,-5.045784301534077532e-01,3.353186744728894331e-01
2.069600000000000151e+01,3.949579362876228655e-02,2.628109455467154687e-01,-4.998857459009723447e-01,3.437060331910016808e-01
2.070799999999999841e+01,5.556850209639722926e-02,2.586294775149523550e-01,-4.948842525508509449e-01,3.519514610431433432e-01
2.071999999999999886e+01,7.148729532776802731e-02,2.537371595074722763e-01,-4.895765361478262578e-01,3.600427918612863487e-01
2.073199999999999932e+01,8.722293898195393469e-02,2.481343564139484315e-01,-4.839656002643051846e-01,3.679677528278242904e-01
2.074399999999999977e+01,1.027458267325311730e-01,2.418225224356624070e-01,-4.780548826279565344e-01,3.757139699497057950e-01
2.075600000000000023e+01,1.180260064945903992e-01,2.348042300593632670e-01,-4.718482728123842285e-01,3.832689746502888628e-01
2.076800000000000068e+01,1.330332066251274648e-01,2.270832004427794648e-01,-4.653501309721309043e-01,3.906202116359814291e-01
2.078000000000000114e+01,1.477368625088075760e-01,2.186643355573109626e-01,-4.585653075899563946e-01,3.977550482025347667e-01
2.079200000000000159e+01,1.621061439933793313e-01,2.095537523626442022e-01,-4.514991641894219310e-01,4.046607851531884847e-01
2.080399999999999849e+01,1.761099841815014500e-01,1.997588192159151788e-01,-4.441575949492911346e-01,4.113246695075129522e-01
2.081599999999999895e+01,1.897171101199224275e-01,1.892881946450513109e-01,-4.365470491379702667e-01,4.177339091855938880e-01
2.082799999999999940e+01,2.028960759539222003e-01,1.781518685424840487e-01,-4.286745542662323549e-01,4.238756898568170062e-01
2.083999999999999986e+01,2.156152991354811088e-01,1.663612057611832673e-01,-4.205477398345362494e-01,4.297371941458658640e-01
2.085200000000000031e+01,2.278431002881041445e-01,1.539289920195663075e-01,-4.121748615276132899e-01,4.353056233900942096e-01
2.086400000000000077e+01,2.395477473403405666e-01,1.408694819455110492e-01,-4.035648256834290515e-01,4.405682221420770817e-01
2.087600000000000122e+01,2.506975045431347748e-01,1.271984490114369537e-01,-3.947272138363135952e-01,4.455123056084088762e-01
2.088800000000000168e+01,2.612606869836519574e-01,1.129332370321256412e-01,-3.856723071050599527e-01,4.501252902103362041e-01
2.089999999999999858e+01,2.712057211992056627e-01,9.809281281471490810e-02,-3.764111101662617753e-01,4.543947274432375005e-01
2.091199999999999903e+01,2.805012124788514583e-01,8.269781946547992424e-02,-3.669553745212779661e-01,4.583083411998047363e-01
2.092399999999999949e+01,2.891160194166877417e-01,6.677062977093478624e-02,-3.573176207324068043e-01,4.618540687056453264e-01
2.093599999999999994e+01,2.970193362482563826e-01,5.033539898173886029e-02,-3.475111592701712326e-01,4.650201051955167864e-01
2.094800000000000040e+01,3.041807834595245397e-01,3.341811623692442224e-02,-3.375501095799598450e-01,4.677949524329947373e-01
2.096000000000000085e+01,3.105705071049051913e-01,1.604665377431610876e-02,-3.274494169427384360e-01,4.701674711457741185e-01
2.097200000000000131e+01,3.161592872060942638e-01,-1.749187019098664411e-03,-3.172248666720954846e-01,4.721269374125783291e-01
2.098400000000000176e+01,3.209186555258232154e-01,-1.993763375378880195e-02,-3.068930951591040679e-01,4.736631029955023497e-01
2.099599999999999866e+01,3.248210229191185738e-01,-3.848490650663851514e-02,-2.964715972483003559e-01,4.747662595633317939e-01
2.100799999999999912e+01,3.278398163580537039e-01,-5.735518782137302013e-02,-2.859787294033828142e-01,4.754273066967908967e-01
2.101999999999999957e+01,3.299496256043139564e-01,-7.651060052718586246e-02,-2.754337081012189214e-01,4.756378235057893145e-01
2.103200000000000003e+01,3.311263593659029558e-01,-9.591119473092785119e-02,-2.648566028782783355e-01,4.753901436217034537e-01
2.104400000000000048e+01,3.313474106204102321e-01,-1.155149453954825156e-01,-2.542683234462913000e-01,4.746774332548209796e-01
2.105600000000000094e+01,3.305918306175561483e-01,-1.352777619597196890e-01,-2.436906002946372107e-01,4.734937719288444535e-01
2.106800000000000139e+01,3.288405108888980410e-01,-1.551535114808958449e-01,-2.331459582072481218e-01,4.718342354215444567e-01
2.107999999999999829e+01,3.260763723937994407e-01,-1.750940567848680851e-01,-2.226576821427926900e-01,4.696949803542153634e-01
2.109199999999999875e+01,3.222845607202387552e-01,-1.950493110901946880e-01,-2.122497749598440120e-01,4.670733297838545739e-01
2.110399999999999920e+01,3.174526460388563120e-01,-2.149673105252260241e-01,-2.019469065147833087e-01,4.639678590624495280e-01
2.111599999999999966e+01,3.115708262823743691e-01,-2.347943058802534344e-01,-1.917743537200674031e-01,4.603784811392587772e-01
2.112800000000000011e+01,3.046321317940207107e-01,-2.544748748259799687e-01,-1.817579312252481094e-01,4.563065303966392650e-01
2.114000000000000057e+01,2.966326294626707161e-01,-2.739520556833766052e-01,-1.719239124728417500e-01,4.517548440301589752e-01
2.115200000000000102e+01,2.875716241444659649e-01,-2.931675036461194872e-01,-1.622989409860521592e-01,4.467278399120146459e-01
2.116400000000000148e+01,2.774518549669029999e-01,-3.120616701344687272e-01,-1.529099318650374018e-01,4.412315898159728245e-01
2.117599999999999838e+01,2.662796839286640238e-01,-3.305740056985085884e-01,-1.437839636019585809e-01,4.352738868350146118e-01
2.118799999999999883e+01,2.540652740536148424e-01,-3.486431865906668981e-01,-1.349481604710789651e-01,4.288643057925269342e-01
2.119999999999999929e+01,2.408227542383077902e-01,-3.662073647937393872e-01,-1.264295659067329602e-01,4.220142554371602572e-01
2.121199999999999974e+01,2.265703678561678258e-01,-3.832044409270386476e-01,-1.182550074462186407e-01,4.147370212229086750e-01
2.122400000000000020e+01,2.113306021557514180e-01,-3.995723590630056998e-01,-1.104509539836759785e-01,4.070477975121732928e-01
2.123600000000000065e+01,1.951302955215483415e-01,-4.152494220787477097e-01,-1.030433662505978176e-01,3.989637081022412435e-01
2.124800000000000111e+01,1.780007197598803825e-01,-4.301746257486646074e-01,-9.605754160452513457e-02,3.905038140663481538e-01
2.126000000000000156e+01,1.599776347337296956e-01,-4.442880093673490793e-01,-8.951795436480375345e-02,3.816891080197896136e-01
2.127199999999999847e+01,1.411013129020773083e-01,-4.575310202862830078e-01,-8.344809307758910277e-02,3.725424940693339848e-01
2.128399999999999892e+01,1.214165316222998448e-01,-4.698468893680516900e-01,-7.787029621615385033e-02,3.630887528792913765e-01
2.129599999999999937e+01,1.009725314472571522e-01,-4.811810140202043007e-01,-7.280558792129594725e-02,3.533544914878343213e-01
2.130799999999999983e+01,7.982293908760269840e-02,-4.914813451830280511e-01,-6.827351545455570547e-02,3.433680777291721609e-01
2.132000000000000028e+01,5.802565420817542424e-02,-5.006987744238575733e-01,-6.429199006910243930e-02,3.331595593566614721e-01
2.133200000000000074e+01,3.564269977529387762e-02,-5.087875171512552530e-01,-6.087713299436625647e-02,3.227605682130627596e-01
2.134400000000000119e+01,1.274003625633964541e-02,-5.157054879158782246e-01,-5.804312817713998263e-02,3.122042100503972240e-01
2.135600000000000165e+01,-1.061265942110668249e-02,-5.214146638236520914e-01,-5.580208332050945463e-02,3.015249408553016819e-01
2.136799999999999855e+01,-3.434224863483974904e-02,-5.258814322596280233e-01,-5.416390061090405744e-02,2.907584307778727784e-01
2.137999999999999901e+01,-5.837241745274945881e-02,-5.290769194135676035e-01,-5.313615832184676729e-02,2.799414169831683785e-01
2.139199999999999946e+01,-8.262399198283788826e-02,-5.309772965140763246e-01,-5.272400423154557231e-02,2.691115469347070133e-01
2.140399999999999991e+01,-1.070152795540266627e-01,-5.315640612166396828e-01,-5.293006149244271902e-02,2.583072137677551172e-01
2.141600000000000037e+01,-1.314624322061009321e-01,-5.308242922466099856e-01,-5.375434724825819272e-02,2.475673855060914752e-01
2.142800000000000082e+01,-1.558798287020503603e-01,-5.287508761633444854e-01,-5.519420391352414246e-02,2.369314299077779351e-01
2.144000000000000128e+01,-1.801804711618722188e-01,-5.253427059710011893e-01,-5.724424261961078009e-02,2.264389366819233307e-01
2.145199999999999818e+01,-2.042763924825017063e-01,-5.206048522371965470e-01,-5.989629789929028225e-02,2.161295386876931623e-01
2.146399999999999864e+01,-2.280790709841687136e-01,-5.145487083676978379e-01,-6.313939224072773193e-02,2.060427334969738289e-01
2.147599999999999909e+01,-2.514998492388050844e-01,-5.071921126930076795e-01,-6.695970870573592082e-02,1.962177063609057415e-01
2.148799999999999955e+01,-2.744503548223323208e-01,-4.985594510127051016e-01,-7.134056939385954865e-02,1.866931551550204404e-01
2.150000000000000000e+01,-2.968429218188054497e-01,-4.886817441686428509e-01,-7.626241716506791668e-02,1.775071172751565285e-01
2.151200000000000045e+01,-3.185910133224148511e-01,-4.775967260199394104e-01,-8.170279773677399660e-02,1.686967977028528132e-01
2.152400000000000091e+01,-3.396096469605877077e-01,-4.653489177980050795e-01,-8.763633907993409466e-02,1.602983965414803424e-01
2.153600000000000136e+01,-3.598158276245031484e-01,-4.519897051368247376e-01,-9.403472499802301154e-02,1.523469332307761104e-01
2.154800000000000182e+01,-3.791289941601438951e-01,-4.375774239863670645e-01,-1.008666599380128454e-01,1.448760633687655175e-01
2.155999999999999872e+01,-3.974714897489922683e-01,-4.221774609787893318e-01,-1.080978225261545467e-01,1.379178826038687800e-01
2.157199999999999918e+01,-4.147690690740497566e-01,-4.058623724439322511e-01,-1.156908061349877087e-01,1.315027104156541171e-01
2.158399999999999963e+01,-4.309514590666067568e-01,-3.887120239340729477e-01,-1.236050460861428391e-01,1.256588448096886967e-01
2.159600000000000009e+01,-4.459529939431480794e-01,-3.708137485398104172e-01,-1.317967350165937523e-01,1.204122770713936391e-01
2.160800000000000054e+01,-4.597133491572745756e-01,-3.522625171324981763e-01,-1.402187306495317753e-01,1.157863538659400365e-01
2.162000000000000099e+01,-4.721784024601546337e-01,-3.331611065859564347e-01,-1.488204639013392672e-01,1.118013723165273698e-01
2.163200000000000145e+01,-4.833012529471512053e-01,-3.136202426305793600e-01,-1.575478601154583769e-01,1.084740925220090413e-01
2.164399999999999835e+01,-4.930434299766074946e-01,-2.937586819331396426e-01,-1.663432924129179813e-01,1.058171516986689126e-01
2.165599999999999881e+01,-5.013763220703963963e-01,-2.737031830642203123e-01,-1.751455937874352997e-01,1.038383653284752350e-01
2.166799999999999926e+01,-5.082828498615227231e-01,-2.535882982768528637e-01,-1.838901636004998119e-01,1.025399041397267452e-01
2.167999999999999972e+01,-5.137593949721688258e-01,-2.335558980330252332e-01,-1.925092142345724844e-01,1.019173424085475371e-01
2.169200000000000017e+01,-5.178179761910322032e-01,-2.137543193227528227e-01,-2.009322141064679157e-01,1.019585840862411302e-01
2.170400000000000063e+01,-5.204886331685955048e-01,-1.943370095064079484e-01,-2.090865926855385304e-01,1.026426898081539696e-01
2.171600000000000108e+01,-5.218219340809322482e-01,-1.754605236772265320e-01,-2.168987794547579673e-01,1.039386509106261930e-01
2.172800000000000153e+01,-5.218914664116692803e-01,-1.572817311873828672e-01,-2.242956488008359950e-01,1.058041865613798677e-01
2.173999999999999844e+01,-5.207961004139882721e-01,-1.399541036178294784e-01,-2.312064325909594098e-01,1.081846761891395725e-01
2.175199999999999889e+01,-5.186617377546676178e-01,-1.236230009666382523e-01,-2.375651370465738377e-01,1.110123788242472209e-01
2.176399999999999935e+01,-5.156421831811131007e-01,-1.084199538666971718e-01,-2.433134560238607580e-01,1.142061282439169184e-01
2.177599999999999980e+01,-5.119187207701646480e-01,-9.445606310350637691e-02,-2.484041061885869373e-01,1.176717192105692505e-01
2.178800000000000026e+01,-5.076979603030503663e-01,-8.181480285325495871e-02,-2.528044218225644069e-01,1.213032038107172278e-01
2.180000000000000071e+01,-5.032075688547823500e-01,-7.054470907547381875e-02,-2.564999452738497832e-01,1.249852846208776708e-01
2.181200000000000117e+01,-4.986896408022016280e-01,-6.065263271662860861e-02,-2.594976485697191304e-01,1.285969115469826618e-01
2.182400000000000162e+01,-4.943916979997329264e-01,-5.209839655753824988e-02,-2.618283458233319760e-01,1.320160567877969315e-01
2.183599999999999852e+01,-4.905556410893157637e-01,-4.479176164095857032e-02,-2.635478332344631802e-01,1.351254648514143286e-01
2.184799999999999898e+01,-4.874053531575173737e-01,-3.859253248914011614e-02,-2.647363501825701348e-01,1.378189756995119586e-01
2.185999999999999943e+01,-4.851340178437074102e-01,-3.331437747141414996e-02,-2.654961054474840321e-01,1.400078387214937214e-01
