Frequency, Re(SMin1Min1), Im(SMin1Min1), Re(SMax1Min1), Im(SMax1Min1)
2.000000000000000000e+01,-3.634944371871801083e-01,-5.103486355399796670e-01,-2.432660678138826582e-01,-3.616416692154159063e-02
2.001200000000000045e+01,-3.740006636875686241e-01,-4.972135149043576119e-01,-2.502024578222929452e-01,-3.752197111169996296e-02
2.002400000000000091e+01,-3.840989256751429215e-01,-4.837309892486011953e-01,-2.572226215239177827e-01,-3.864825086625305745e-02
2.003600000000000136e+01,-3.937746594418990442e-01,-4.699140779073713858e-01,-2.643189589450448684e-01,-3.953879051091447466e-02
2.004799999999999827e+01,-4.030137148916894119e-01,-4.557764432865746840e-01,-2.714836601750063583e-01,-4.018962803366524922e-02
2.005999999999999872e+01,-4.118023842695848202e-01,-4.413323767309622059e-01,-2.787087146897561096e-01,-4.059706525976171376e-02
2.007199999999999918e+01,-4.201274302392331017e-01,-4.265967830287117346e-01,-2.859859211886294217e-01,-4.075767757549134812e-02
2.008399999999999963e+01,-4.279761132302781212e-01,-4.115851635975821265e-01,-2.933068979133792720e-01,-4.066832316939541364e-02
2.009600000000000009e+01,-4.353362179813432542e-01,-3.963135984032422621e-01,-3.006630934159694735e-01,-4.032615176219377096e-02
2.010800000000000054e+01,-4.421960792082174074e-01,-3.807987266658876546e-01,-3.080457977393382119e-01,-3.972861279942005441e-02
2.012000000000000099e+01,-4.485446063314449949e-01,-3.650577264165816849e-01,-3.154461539732329456e-01,-3.887346308376884996e-02
2.013200000000000145e+01,-4.543713072025998834e-01,-3.491082929696762149e-01,-3.228551701453977740e-01,-3.775877382735990523e-02
2.014399999999999835e+01,-4.596663107740513454e-01,-3.329686163821783951e-01,-3.302637314068348484e-01,-3.638293710751262788e-02
2.015599999999999881e+01,-4.644203886630150491e-01,-3.166573579749624723e-01,-3.376626124686188946e-01,-3.474467171317068698e-02
2.016799999999999926e+01,-4.686249755669979478e-01,-3.001936259943724372e-01,-3.450424902467660870e-01,-3.284302837280988346e-02
2.017999999999999972e+01,-4.722721884945171866e-01,-2.835969504956226683e-01,-3.523939566711080662e-01,-3.067739435844024989e-02
2.019200000000000017e+01,-4.753548447819412881e-01,-2.668872575320100915e-01,-3.597075316137857137e-01,-2.824749746419771834e-02
2.020400000000000063e+01,-4.778664788746145864e-01,-2.500848427356966996e-01,-3.669736758930911558e-01,-2.555340936193212231e-02
2.021600000000000108e+01,-4.798013578579152227e-01,-2.332103443770516260e-01,-3.741828043088088473e-01,-2.259554834013750152e-02
2.022800000000000153e+01,-4.811544957315605497e-01,-2.162847159900988248e-01,-3.813252986659952937e-01,-1.937468143649411986e-02
2.023999999999999844e+01,-4.819216664282357510e-01,-1.993291986514769965e-01,-3.883915207452997564e-01,-1.589192597817042779e-02
2.025199999999999889e+01,-4.820994155854385621e-01,-1.823652929994706295e-01,-3.953718251794353100e-01,-1.214875054782825134e-02
2.026399999999999935e+01,-4.816850710872468411e-01,-1.654147310782441982e-01,-4.022565721972526376e-01,-8.146975396991848126e-03
2.027599999999999980e+01,-4.806767524004667558e-01,-1.484994480900052871e-01,-4.090361401991318702e-01,-3.888772331960705861e-03
2.028800000000000026e+01,-4.790733787372387642e-01,-1.316415541350400564e-01,-4.157009381299047179e-01,6.233358991255768698e-04
2.030000000000000071e+01,-4.768746760836359289e-01,-1.148633060158079089e-01,-4.222414176184218215e-01,5.386476686290916742e-03
2.031200000000000117e+01,-4.740811831409914578e-01,-9.818707917695408682e-02,-4.286480848560597079e-01,1.039742907003399740e-02
2.032400000000000162e+01,-4.706942562336223213e-01,-8.163533984803340859e-02,-4.349115121899492231e-01,1.565262564846447990e-02
2.033599999999999852e+01,-4.667160732431734349e-01,-6.523061745001068612e-02,-4.410223494104548170e-01,2.114815483932762710e-02
2.034799999999999898e+01,-4.621496366359670316e-01,-4.899547732017243973e-02,-4.469713347164886996e-01,2.687976345483621826e-02
2.035999999999999943e+01,-4.569987756554827474e-01,-3.295249380314328735e-02,-4.527493053464483053e-01,3.284285954535431235e-02
2.037199999999999989e+01,-4.512681477572321187e-01,-1.712422374786970458e-02,-4.583472078671304017e-01,3.903251546652973525e-02
2.038400000000000034e+01,-4.449632393679804343e-01,-1.533180442355821767e-03,-4.637561081175824440e-01,4.544347112326888039e-02
2.039600000000000080e+01,-4.380903660552579737e-01,1.379819199099913130e-02,-4.689672008097595657e-01,5.207013734319933945e-02
2.040800000000000125e+01,-4.306566721964822930e-01,2.884754372592213470e-02,-4.739718187928531612e-01,5.890659933186717656e-02
2.042000000000000171e+01,-4.226701302396573268e-01,4.359264388498457210e-02,-4.787614419933189924e-01,6.594662016192799625e-02
2.043199999999999861e+01,-4.141395396495212156e-01,5.801140472118606478e-02,-4.833277060478788356e-01,7.318364424901480092e-02
2.044399999999999906e+01,-4.050745256340890221e-01,7.208190534587813336e-02,-4.876624106521537105e-01,8.061080076783920523e-02
2.045599999999999952e+01,-3.954855377468261546e-01,8.578241503159061976e-02,-4.917575276529588257e-01,8.822090696333945159e-02
2.046799999999999997e+01,-3.853838484589509616e-01,9.909141613002077353e-02,-4.956052089178168418e-01,9.600647131351740249e-02
2.048000000000000043e+01,-3.747815517948337449e-01,1.119876266571660506e-01,-4.991977940206839270e-01,1.039596965027645981e-01
2.049200000000000088e+01,-3.636915621207991722e-01,1.244500226098334827e-01,-5.025278177884063835e-01,1.120724821672323818e-01
2.050400000000000134e+01,-3.521276131739843884e-01,1.364578600901258654e-01,-5.055880177578812029e-01,1.203364273770045206e-01
2.051599999999999824e+01,-3.401042574131291074e-01,1.479906973271102322e-01,-5.083713415993248441e-01,1.287428328235611097e-01
2.052799999999999869e+01,-3.276368657671793749e-01,1.590284166976351776e-01,-5.108709545663973062e-01,1.372827026853135901e-01
2.053999999999999915e+01,-3.147416278504727161e-01,1.695512468610382850e-01,-5.130802470391908621e-01,1.459467461487673201e-01
2.055199999999999960e+01,-3.014355527046358452e-01,1.795397851354507968e-01,-5.149928422312033405e-01,1.547253785683615213e-01
2.056400000000000006e+01,-2.877364701175538220e-01,1.889750202561363557e-01,-5.166026041363906973e-01,1.636087222539702457e-01
2.057600000000000051e+01,-2.736630325583506163e-01,1.978383556690563871e-01,-5.179036457971383234e-01,1.725866068817415722e-01
2.058800000000000097e+01,-2.592347177544286341e-01,2.061116335253528054e-01,-5.188903379785153591e-01,1.816485695312483883e-01
2.060000000000000142e+01,-2.444718319220818281e-01,2.137771595546296421e-01,-5.195573183384029070e-01,1.907838543599266468e-01
2.061199999999999832e+01,-2.293955136459287503e-01,2.208177290066859200e-01,-5.198995011869610439e-01,1.999814119345003915e-01
2.062399999999999878e+01,-2.140277383842715819e-01,2.272166538625922938e-01,-5.199120879323773092e-01,2.092298982485986114e-01
2.063599999999999923e+01,-1.983913235575694434e-01,2.329577915264554877e-01,-5.195905783128094146e-01,2.185176734659894093e-01
2.064799999999999969e+01,-1.825099341549829279e-01,2.380255752189164298e-01,-5.189307825168816279e-01,2.278328004400562712e-01
2.066000000000000014e+01,-1.664080887699297406e-01,2.424050463018728174e-01,-5.179288342968162429e-01,2.371630430720069460e-01
2.067200000000000060e+01,-1.501111659490775851e-01,2.460818887711664904e-01,-5.165812051792951776e-01,2.464958645832096562e-01
2.068400000000000105e+01,-1.336454107105125022e-01,2.490424661595753431e-01,-5.148847198792112501e-01,2.558184257907849535e-01
2.069600000000000151e+01,-1.170379410556983552e-01,2.512738610961607888e-01,-5.128365730205417528e-01,2.651175834902615436e-01
2.070799999999999841e+01,-1.003167542662910527e-01,2.527639177695202299e-01,-5.104343472664135684e-01,2.743798890647060063e-01
2.071999999999999886e+01,-8.351073274078699149e-02,2.535012875413599209e-01,-5.076760329569334207e-01,2.835915874562792705e-01
2.073199999999999932e+01,-6.664964908755627304e-02,2.534754779526221524e-01,-5.045600493482828020e-01,2.927386166535289602e-01
2.074399999999999977e+01,-4.976417014964739510e-02,2.526769053567474166e-01,-5.010852675397337030e-01,3.018066078660908147e-01
2.075600000000000023e+01,-3.288585959356191829e-02,2.510969514028933425e-01,-4.972510351663760320e-01,3.107808865774128182e-01
2.076800000000000068e+01,-1.604717864849891998e-02,2.487280235756461066e-01,-4.930572029242800136e-01,3.196464746858848627e-01
2.078000000000000114e+01,7.185154649999559405e-04,2.455636199762125660e-01,-4.885041529811565142e-01,3.283880939649821418e-01
2.079200000000000159e+01,1.737697392740094465e-02,2.415983985026868841e-01,-4.835928293091922292e-01,3.369901710936270556e-01
2.080399999999999849e+01,3.389306409454753699e-02,2.368282505530353022e-01,-4.783247699572193423e-01,3.454368445286873923e-01
2.081599999999999895e+01,5.023078126652987668e-02,2.312503793331989188e-01,-4.727021412564976766e-01,3.537119735120923258e-01
2.082799999999999940e+01,6.635326511499944901e-02,2.248633828035056792e-01,-4.667277739278679061e-01,3.617991495250266198e-01
2.083999999999999986e+01,8.222282148394730039e-02,2.176673412385466133e-01,-4.604052010274741757e-01,3.696817105208406451e-01
2.085200000000000031e+01,9.780095032806271349e-02,2.096639093082567074e-01,-4.537386976335961442e-01,3.773427582858882023e-01
2.086400000000000077e+01,1.130483805993736102e-01,2.008564125103157183e-01,-4.467333221379313768e-01,3.847651792932081927e-01
2.087600000000000122e+01,1.279251129351733907e-01,1.912499476956302791e-01,-4.393949589608821538e-01,3.919316694269059376e-01
2.088800000000000168e+01,1.423904710368737447e-01,1.808514873290444913e-01,-4.317303624618671343e-01,3.988247629646486936e-01
2.089999999999999858e+01,1.564031626585577206e-01,1.696699870162050594e-01,-4.237472017623407639e-01,4.054268662109296595e-01
2.091199999999999903e+01,1.699213511436643009e-01,1.577164957044750737e-01,-4.154541061411460290e-01,4.117202961738203326e-01
2.092399999999999949e+01,1.829027384560598657e-01,1.450042678311755651e-01,-4.068607105993126694e-01,4.176873246716911181e-01
2.093599999999999994e+01,1.953046606456292356e-01,1.315488765463181386e-01,-3.979777011246036778e-01,4.233102282429308527e-01
2.094800000000000040e+01,2.070841966653305388e-01,1.173683269805648327e-01,-3.888168591158415732e-01,4.285713442096202308e-01
2.096000000000000085e+01,2.181982914141528396e-01,1.024831683631899915e-01,-3.793911043537645522e-01,4.334531332144879179e-01
2.097200000000000131e+01,2.286038938153779065e-01,8.691660362127247297e-02,-3.697145358300740758e-01,4.379382485079334475e-01
2.098400000000000176e+01,2.382581106492593637e-01,7.069459491238287707e-02,-3.598024696705656167e-01,4.420096122073443046e-01
2.099599999999999866e+01,2.471183767407936493e-01,5.384596336155407503e-02,-3.496714733134054232e-01,4.456504986832504067e-01
2.100799999999999912e+01,2.551426419540851476e-01,3.640248109286794986e-02,-3.393393950314882446e-01,4.488446251451216895e-01
2.101999999999999957e+01,2.622895752623923826e-01,1.839895347103607040e-02,-3.288253878206799929e-01,4.515762494029812446e-01
2.103200000000000003e+01,2.685187859456631410e-01,-1.267106964876780627e-04,-3.181499266158210881e-01,4.538302746690938694e-01
2.104400000000000048e+01,2.737910617135171365e-01,-1.913344339463194863e-02,-3.073348177467674081e-01,4.555923611364666725e-01
2.105600000000000094e+01,2.780686232611567221e-01,-3.857697859679152380e-02,-2.964031995101353845e-01,4.568490439282017479e-01
2.106800000000000139e+01,2.813153944387745686e-01,-5.840983304160082823e-02,-2.853795327122779502e-01,4.575878568544928249e-01
2.107999999999999829e+01,2.834972868535617363e-01,-7.858130926885936729e-02,-2.742895800386209171e-01,4.577974612437158419e-01
2.109199999999999875e+01,2.845824973304767469e-01,-9.903752360650414088e-02,-2.631603731272480484e-01,4.574677789326159760e-01
2.110399999999999920e+01,2.845418162381627147e-01,-1.197214617604571707e-01,-2.520201662740194082e-01,4.565901283108198538e-01
2.111599999999999966e+01,2.833489442463418273e-01,-1.405730645582756733e-01,-2.408983757753711263e-01,4.551573621203836573e-01
2.112800000000000011e+01,2.809808146287592345e-01,-1.615293462276661818e-01,-2.298255040264579607e-01,4.531640055161482161e-01
2.114000000000000057e+01,2.774179177716862288e-01,-1.825245473464811585e-01,-2.188330476382036871e-01,4.506063927025194538e-01
2.115200000000000102e+01,2.726446241038439355e-01,-2.034903242762355347e-01,-2.079533890188298151e-01,4.474828002828252216e-01
2.116400000000000148e+01,2.666495012433784950e-01,-2.243559764834165970e-01,-1.972196710838239053e-01,4.437935752951622237e-01
2.117599999999999838e+01,2.594256207762096200e-01,-2.450487126609392774e-01,-1.866656550124100034e-01,4.395412557707754075e-01
2.118799999999999883e+01,2.509708497540885097e-01,-2.654939559878353172e-01,-1.763255612562686092e-01,4.347306815448043205e-01
2.119999999999999929e+01,2.412881217471919137e-01,-2.856156882134305297e-01,-1.662338943240310452e-01,4.293690929822376878e-01
2.121199999999999974e+01,2.303856821216524464e-01,-3.053368315317794290e-01,-1.564252522074999485e-01,4.234662152611556318e-01
2.122400000000000020e+01,2.182773021540389546e-01,-3.245796664342669446e-01,-1.469341216761679281e-01,4.170343258875927051e-01
2.123600000000000065e+01,2.049824566567559625e-01,-3.432662829098957480e-01,-1.377946610365470836e-01,4.100883032070293810e-01
2.124800000000000111e+01,1.905264599835615746e-01,-3.613190615226012925e-01,-1.290404723224275463e-01,4.026456538310017597e-01
2.126000000000000156e+01,1.749405556220040292e-01,-3.786611800563002839e-01,-1.207043652400725531e-01,3.947265171159907715e-01
2.127199999999999847e+01,1.582619550648499407e-01,-3.952171406066981585e-01,-1.128181155264118274e-01,3.863536451160696772e-01
2.128399999999999892e+01,1.405338222857908104e-01,-4.109133112419650069e-01,-1.054122206757344832e-01,3.775523567786722157e-01
2.129599999999999937e+01,1.218052009209708297e-01,-4.256784756807778791e-01,-9.851565623851703257e-02,3.683504655598064947e-01
2.130799999999999983e+01,1.021308821657008620e-01,-4.394443838749547138e-01,-9.215563608239474291e-02,3.587781800935737064e-01
2.132000000000000028e+01,8.157121241876109929e-02,-4.521462959616725508e-01,-8.635738011901489264e-02,3.488679780512884410e-01
2.133200000000000074e+01,6.019184082131302793e-02,-4.637235117922018368e-01,-8.114389303187344304e-02,3.386544538551430894e-01
2.134400000000000119e+01,3.806340801577100252e-02,-4.741198781703105380e-01,-7.653575748227894882e-02,3.281741414557655112e-01
2.135600000000000165e+01,1.526117865881351093e-02,-4.832842660593373307e-01,-7.255094511886826802e-02,3.174653139259184798e-01
2.136799999999999855e+01,-8.135378574330618187e-03,-4.911710103511844894e-01,-6.920464846948344573e-02,3.065677621465618952e-01
2.137999999999999901e+01,-3.204305859881879937e-02,-4.977403053347656536e-01,-6.650913645497870397e-02,2.955225553488686208e-01
2.139199999999999946e+01,-5.637542917197006093e-02,-5.029585497496772417e-01,-6.447363583850213020e-02,2.843717867092110385e-01
2.140399999999999991e+01,-8.104337486476771713e-02,-5.067986362494791841e-01,-6.310424042012864609e-02,2.731583075571694663e-01
2.141600000000000037e+01,-1.059556680337973705e-01,-5.092401812065256994e-01,-6.240384921788823258e-02,2.619254540352493055e-01
2.142800000000000082e+01,-1.310195584665320712e-01,-5.102696920392727487e-01,-6.237213425709767223e-02,2.507167702309843760e-01
2.144000000000000128e+01,-1.561413729781683524e-01,-5.098806705998699673e-01,-6.300553793757988907e-02,2.395757318788628853e-01
2.145199999999999818e+01,-1.812271160754165555e-01,-5.080736525872048270e-01,-6.429729928111106718e-02,2.285454746954402039e-01
2.146399999999999864e+01,-2.061830628831536616e-01,-5.048561844085225347e-01,-6.623750769806267813e-02,2.176685312640901371e-01
2.147599999999999909e+01,-2.309163358572394742e-01,-5.002427403605010925e-01,-6.881318227116131614e-02,2.069865801275380945e-01
2.148799999999999955e+01,-2.553354573786679738e-01,-4.942545843985918230e-01,-7.200837395298970156e-02,1.965402103807826484e-01
2.150000000000000000e+01,-2.793508711302191694e-01,-4.869195820742395209e-01,-7.580428752790963065e-02,1.863687045915612406e-01
2.151200000000000045e+01,-3.028754261836368866e-01,-4.782719694097386509e-01,-8.017941971210441887e-02,1.765098423184447152e-01
2.152400000000000091e+01,-3.258248189548624829e-01,-4.683520865208916084e-01,-8.510970936850760504e-02,1.669997258579076493e-01
2.153600000000000136e+01,-3.481179895983966821e-01,-4.572060846639133258e-01,-9.056869550541631064e-02,1.578726291408300009e-01
2.154800000000000182e+01,-3.696774709911461176e-01,-4.448856160549634620e-01,-9.652767851552918055e-02,1.491608699245191016e-01
2.155999999999999872e+01,-3.904296901856287305e-01,-4.314475162710614820e-01,-1.029558800019122339e-01,1.408947045953385380e-01
2.157199999999999918e+01,-4.103052240811853602e-01,-4.169534892734968468e-01,-1.098205965348630769e-01,1.331022440134740914e-01
2.158399999999999963e+01,-4.292390130646883128e-01,-4.014698050807701257e-01,-1.170873427964231051e-01,1.258093878963713330e-01
2.159600000000000009e+01,-4.471705385108979969e-01,-3.850670198322880267e-01,-1.247199798088005351e-01,1.190397742485141130e-01
2.160800000000000054e+01,-4.640439723140081241e-01,-3.678197273906740894e-01,-1.326808243266993648e-01,1.128147392977301294e-01
2.162000000000000099e+01,-4.798083090580436139e-01,-3.498063506749092277e-01,-1.409307360286980448e-01,1.071532822853680511e-01
2.163200000000000145e+01,-4.944174940350359870e-01,-3.311089795196093255e-01,-1.494291799091709838e-01,1.020720282742204194e-01
2.164399999999999835e+01,-5.078305630889023981e-01,-3.118132599046393727e-01,-1.581342623064820319e-01,9.758518088364614984e-02
2.165599999999999881e+01,-5.200118131813836753e-01,-2.920083367393042639e-01,-1.670027403824950463e-01,9.370445554736789306e-02
2.166799999999999926e+01,-5.309310255863235462e-01,-2.717868488124418613e-01,-1.759900066938251129e-01,9.043898254841804818e-02
2.167999999999999972e+01,-5.405637665961279259e-01,-2.512449697749030708e-01,-1.850500528934194977e-01,8.779516778478249628e-02
2.169200000000000017e+01,-5.488917933414489969e-01,-2.304824827937091702e-01,-1.941354197217069755e-01,8.577649807884418776e-02
2.170400000000000063e+01,-5.559035944023195119e-01,-2.096028684574090528e-01,-2.031971444553903605e-01,8.438327706104509218e-02
2.171600000000000108e+01,-5.615950957321894643e-01,-1.887133752668988806e-01,-2.121847220403531853e-01,8.361227753751429570e-02
2.172800000000000153e+01,-5.659705611482956922e-01,-1.679250293257364968e-01,-2.210461023655369561e-01,8.345629723680951517e-02
2.173999999999999844e+01,-5.690437120317368702e-01,-1.473525245399047723e-01,-2.297277535598792331e-01,8.390360753819248174e-02
2.175199999999999889e+01,-5.708390812948327397e-01,-1.271139170037151045e-01,-2.381748296452883551e-01,8.493729002033756359e-02
2.176399999999999935e+01,-5.713936000826075334e-01,-1.073300281701175946e-01,-2.463314898608511549e-01,8.653446442322865195e-02
2.177599999999999980e+01,-5.707583897767803949e-01,-8.812344274533265298e-02,-2.541414254948945461e-01,8.866542498558788177e-02
2.178800000000000026e+01,-5.690006944077832252e-01,-6.961697227366740737e-02,-2.615486564315734341e-01,9.129272114245397252e-02
2.180000000000000071e+01,-5.662058379617149750e-01,-5.193144915111120447e-02,-2.684986612651674154e-01,9.437024389654158352e-02
2.181200000000000117e+01,-5.624790273809157082e-01,-3.518272541379868779e-02,-2.749398982191102458e-01,9.784241056934647740e-02
2.182400000000000162e+01,-5.579467485002888028e-01,-1.947778497181683333e-02,-2.808257548792424396e-01,1.016435762375979823e-01
2.183599999999999852e+01,-5.527574267823941456e-01,-4.909946604703767196e-03,-2.861169283427879018e-01,1.056978356608998526e-01
2.184799999999999898e+01,-5.470809620004324358e-01,8.446754011802714082e-03,-2.907841802318812952e-01,1.099194074166999213e-01
2.185999999999999943e+01,-5.411067175239689941e-01,2.054375922063720120e-02,-2.948113325304044796e-01,1.142138014082390574e-01
