Frequency, Re(SMin1Min1), Im(SMin1Min1), Re(SMax1Min1), Im(SMax1Min1)
2.000000000000000000e+01,-2.911920321912428444e-01,2.909975560121798588e-01,-6.242828720210177318e-01,1.335197363844423390e-01
2.001200000000000045e+01,-2.810613569376853027e-01,2.988260712971477218e-01,-6.253025689936253517e-01,1.407310045086825612e-01
2.002400000000000091e+01,-2.707760027228758304e-01,3.063619393164295213e-01,-6.261685841239026384e-01,1.479562683686620195e-01
2.003600000000000136e+01,-2.603440519376202245e-01,3.136029390349954760e-01,-6.268814307333407942e-01,1.551919478035429789e-01
2.004799999999999827e+01,-2.497735223536180771e-01,3.205470838273972167e-01,-6.274417012662956150e-01,1.624345346955550773e-01
2.005999999999999872e+01,-2.390723599036491120e-01,3.271926118604214784e-01,-6.278500618574849312e-01,1.696805942118300159e-01
2.007199999999999918e+01,-2.282484321639402791e-01,3.335379763003983866e-01,-6.281072469423918392e-01,1.769267657233608015e-01
2.008399999999999963e+01,-2.173095225318136536e-01,3.395818353859622607e-01,-6.282140539260230305e-01,1.841697634106432280e-01
2.009600000000000009e+01,-2.062633250898495418e-01,3.453230424050797165e-01,-6.281713379243187845e-01,1.914063765659640148e-01
2.010800000000000054e+01,-1.951174401460419316e-01,3.507606356132558778e-01,-6.279800065914337148e-01,1.986334696027243218e-01
2.012000000000000099e+01,-1.838793704379050042e-01,3.558938281277799209e-01,-6.276410150449539538e-01,2.058479817824522551e-01
2.013200000000000145e+01,-1.725565179872985688e-01,3.607219978309186281e-01,-6.271553609000979357e-01,2.130469266702940678e-01
2.014399999999999835e+01,-1.611561815915467932e-01,3.652446773128288915e-01,-6.265240794228836840e-01,2.202273913299360175e-01
2.015599999999999881e+01,-1.496855549357903048e-01,3.694615438831383436e-01,-6.257482388112616256e-01,2.273865352687968466e-01
2.016799999999999926e+01,-1.381517253106277210e-01,3.733724096779971191e-01,-6.248289356122587179e-01,2.345215891443339640e-01
2.017999999999999972e+01,-1.265616729188387413e-01,3.769772118876360545e-01,-6.237672902822960497e-01,2.416298532421342626e-01
2.019200000000000017e+01,-1.149222707545862754e-01,3.802760031275599917e-01,-6.225644428969946409e-01,2.487086957361470674e-01
2.020400000000000063e+01,-1.032402850384505633e-01,3.832689419747075110e-01,-6.212215490159813669e-01,2.557555507412623830e-01
2.021600000000000108e+01,-9.152237619167111204e-02,3.859562836882648451e-01,-6.197397757075426838e-01,2.627679161679597475e-01
2.022800000000000153e+01,-7.977510033318942206e-02,3.883383711332497046e-01,-6.181202977372393104e-01,2.697433513884689438e-01
2.023999999999999844e+01,-6.800491128340252489e-02,3.904156259233896309e-01,-6.163642939240780994e-01,2.766794747233159990e-01
2.025199999999999889e+01,-5.621816305902058858e-02,3.921885397986001887e-01,-6.144729436672760059e-01,2.835739607567920872e-01
2.026399999999999935e+01,-4.442111284401422527e-02,3.936576662509615465e-01,-6.124474236462018606e-01,2.904245374892205911e-01
2.027599999999999980e+01,-3.261992442226333694e-02,3.948236124120720336e-01,-6.102889046957110653e-01,2.972289833334626485e-01
2.028800000000000026e+01,-2.082067205839151919e-02,3.956870312136080980e-01,-6.079985488587763554e-01,3.039851239624720147e-01
2.030000000000000071e+01,-9.029344814069894740e-03,3.962486138320829299e-01,-6.055775066180854038e-01,3.106908290141320306e-01
2.031200000000000117e+01,2.748148711980821259e-03,3.965090824280322890e-01,-6.030269143080718708e-01,3.173440086590375020e-01
2.032400000000000162e+01,1.450597523097528485e-02,3.964691831893729645e-01,-6.003478917088540534e-01,3.239426100361864624e-01
2.033599999999999852e+01,2.623837120775646820e-02,3.961296796881462190e-01,-5.975415398234085185e-01,3.304846135610273739e-01
2.034799999999999898e+01,3.793963690972559227e-02,3.954913465596886502e-01,-5.946089388394818487e-01,3.369680291096104341e-01
2.035999999999999943e+01,4.960413006838475941e-02,3.945549635130997657e-01,-5.915511462778252350e-01,3.433908920819715993e-01
2.037199999999999989e+01,6.122625915973058802e-02,3.933213096819740406e-01,-5.883691953285493659e-01,3.497512593473068865e-01
2.038400000000000034e+01,7.280047630844976858e-02,3.917911583245571316e-01,-5.850640933777219166e-01,3.560472050728177851e-01
2.039600000000000080e+01,8.432126981968782187e-02,3.899652718829316189e-01,-5.816368207266627843e-01,3.622768164375667066e-01
2.040800000000000125e+01,9.578315634090663055e-02,3.878443974113615078e-01,-5.780883295068998118e-01,3.684381892320434670e-01
2.042000000000000171e+01,1.071806726551046557e-01,3.854292623847461186e-01,-5.744195427942294652e-01,3.745294233436270992e-01
2.043199999999999861e+01,1.185083671054655702e-01,3.827205708990593092e-01,-5.706313539260026158e-01,3.805486181275524182e-01
2.044399999999999906e+01,1.297607906502961372e-01,3.797190002768304207e-01,-5.667246260264469093e-01,3.864938676624954383e-01
2.045599999999999952e+01,1.409324875458818627e-01,3.764251980920914620e-01,-5.627001917456532221e-01,3.923632558893889732e-01
2.046799999999999997e+01,1.520179856538675378e-01,3.728397796308105527e-01,-5.585588532187538702e-01,3.981548516316747444e-01
2.048000000000000043e+01,1.630117863685764945e-01,3.689633258046473019e-01,-5.543013822528337631e-01,4.038667034947551193e-01
2.049200000000000088e+01,1.739083541587245763e-01,3.647963815379457464e-01,-5.499285207502215833e-01,4.094968346420863603e-01
2.050400000000000134e+01,1.847021057170416258e-01,3.603394546501919593e-01,-5.454409813780336513e-01,4.150432374450495621e-01
2.051599999999999824e+01,1.953873987104626786e-01,3.555930152587524762e-01,-5.408394484951658532e-01,4.205038680035090848e-01
2.052799999999999869e+01,2.059585201228599505e-01,3.505574957295931604e-01,-5.361245793494082701e-01,4.258766405338272887e-01
2.053999999999999915e+01,2.164096741816319280e-01,3.452332912068570847e-01,-5.312970055589351093e-01,4.311594216209947983e-01
2.055199999999999960e+01,2.267349698591485108e-01,3.396207607556584462e-01,-5.263573348941260610e-01,4.363500243316279503e-01
2.056400000000000006e+01,2.369284079397181719e-01,3.337202291563012291e-01,-5.213061533775769085e-01,4.414462021846569661e-01
2.057600000000000051e+01,2.469838676427794089e-01,3.275319893923198666e-01,-5.161440277221269746e-01,4.464456429768338119e-01
2.058800000000000097e+01,2.568950927932457384e-01,3.210563058793055591e-01,-5.108715081289503246e-01,4.513459624605775655e-01
2.060000000000000142e+01,2.666556775304868565e-01,3.142934184864590863e-01,-5.054891314700449279e-01,4.561446978722527579e-01
2.061199999999999832e+01,2.762590515482806763e-01,3.072435474082113038e-01,-4.999974248820163725e-01,4.608393013097202839e-01
2.062399999999999878e+01,2.856984648594029785e-01,2.999068989490765724e-01,-4.943969098006816831e-01,4.654271329590032313e-01
2.063599999999999923e+01,2.949669720801875727e-01,2.922836722912621754e-01,-4.886881064689951315e-01,4.699054541710575572e-01
2.064799999999999969e+01,3.040574162327542851e-01,2.843740673213004388e-01,-4.828715389537384106e-01,4.742714203912117288e-01
2.066000000000000014e+01,3.129624120653946573e-01,2.761782935993488675e-01,-4.769477407098438593e-01,4.785220739455516292e-01
2.067200000000000060e+01,3.216743288952209623e-01,2.676965805625865502e-01,-4.709172607345561423e-01,4.826543366907604660e-01
2.068400000000000105e+01,3.301852729815580312e-01,2.589291890626118642e-01,-4.647806703574423604e-01,4.866650025364206433e-01
2.069600000000000151e+01,3.384870694438332772e-01,2.498764243456069734e-01,-4.585385707160490876e-01,4.905507298518517190e-01
2.070799999999999841e+01,3.465712437440331972e-01,2.405386505936248642e-01,-4.521916009711521300e-01,4.943080337730741958e-01
2.071999999999999886e+01,3.544290027613953842e-01,2.309163071553634594e-01,-4.457404473197899564e-01,4.979332784296091607e-01
2.073199999999999932e+01,3.620512154957006845e-01,2.210099266054975642e-01,-4.391858528687305196e-01,5.014226691156167259e-01
2.074399999999999977e+01,3.694283934461862762e-01,2.108201547826466515e-01,-4.325286284356035238e-01,5.047722444354186822e-01
2.075600000000000023e+01,3.765506707249562934e-01,2.003477729678315722e-01,-4.257696643496469702e-01,5.079778684597768823e-01
2.076800000000000068e+01,3.834077839781036001e-01,1.895937223771670121e-01,-4.189099433288429042e-01,5.110352229366361687e-01
2.078000000000000114e+01,3.899890522039144436e-01,1.785591311550080995e-01,-4.119505545149671488e-01,5.139397996083868714e-01
2.079200000000000159e+01,3.962833565763771992e-01,1.672453440662645119e-01,-4.048927087529168856e-01,5.166868926971979192e-01
2.080399999999999849e+01,4.022791204037834967e-01,1.556539550993296939e-01,-3.977377552052707155e-01,5.192715916308039414e-01
2.081599999999999895e+01,4.079642893768797296e-01,1.437868432034330735e-01,-3.904871993974066702e-01,5.216887740934025297e-01
2.082799999999999940e+01,4.133263122891485675e-01,1.316462113965499170e-01,-3.831427227925941481e-01,5.239330995001171276e-01
2.083999999999999986e+01,4.183521224438099262e-01,1.192346294912227794e-01,-3.757062039998017577e-01,5.259990030091178381e-01
2.085200000000000031e+01,4.230281199982821594e-01,1.065550806961767238e-01,-3.681797417198067746e-01,5.278806902029569148e-01
2.086400000000000077e+01,4.273401555377159267e-01,9.361101236031259265e-02,-3.605656795368141765e-01,5.295721325902678078e-01
2.087600000000000122e+01,4.312735152151357387e-01,8.040639113249939407e-02,-3.528666326633030925e-01,5.310670641007654291e-01
2.088800000000000168e+01,4.348129078471356657e-01,6.694576281436755150e-02,-3.450855167445794902e-01,5.323589787707435628e-01
2.089999999999999858e+01,4.379424544114752793e-01,5.323431718379269956e-02,-3.372255788263736620e-01,5.334411298429991843e-01
2.091199999999999903e+01,4.406456804566383223e-01,3.927795806239899740e-02,-3.292904305830622880e-01,5.343065305346182958e-01
2.092399999999999949e+01,4.429055120037889703e-01,2.508337889061852330e-02,-3.212840838954143519e-01,5.349479567582849926e-01
2.093599999999999994e+01,4.447042755991157392e-01,1.065814405676619551e-02,-3.132109888542500276e-01,5.353579521179416822e-01
2.094800000000000040e+01,4.460237032590486095e-01,-3.989223798821507280e-03,-3.050760742496502753e-01,5.355288355375622533e-01
2.096000000000000085e+01,4.468449431429348251e-01,-1.884915031936432520e-02,-2.968847905832163736e-01,5.354527119226178966e-01
2.097200000000000131e+01,4.471485768867036192e-01,-3.391090966992612449e-02,-2.886431556126564102e-01,5.351214862971939157e-01
2.098400000000000176e+01,4.469146446370551029e-01,-4.916251840418416064e-02,-2.803578024025094040e-01,5.345268819054070919e-01
2.099599999999999866e+01,4.461226789376357971e-01,-6.459062296546998205e-02,-2.720360298109556485e-01,5.336604628133906347e-01
2.100799999999999912e+01,4.447517487357709465e-01,-8.018038092789517290e-02,-2.636858552891836460e-01,5.325136615967902554e-01
2.101999999999999957e+01,4.427805148988358530e-01,-9.591533620655419423e-02,-2.553160698053635325e-01,5.310778127478110733e-01
2.103200000000000003e+01,4.401872987511677437e-01,-1.117772886155290746e-01,-2.469362946282591675e-01,5.293441924838702128e-01
2.104400000000000048e+01,4.369501652626511246e-01,-1.277461583320406713e-01,-2.385570396148215810e-01,5.273040656855598751e-01
2.105600000000000094e+01,4.330470226349359963e-01,-1.437998460385669086e-01,-2.301897625398152125e-01,5.249487407326903776e-01
2.106800000000000139e+01,4.284557401358202733e-01,-1.599140897654386106e-01,-2.218469288825126451e-01,5.222696330413946209e-01
2.107999999999999829e+01,4.231542861208036910e-01,-1.760623197480865043e-01,-2.135420713443466623e-01,5.192583381294926248e-01
2.109199999999999875e+01,4.171208882456269307e-01,-1.922155129487903291e-01,-2.052898482110376288e-01,5.159067150480491915e-01
2.110399999999999920e+01,4.103342179061705841e-01,-2.083420492749417652e-01,-1.971060994925975252e-01,5.122069810099596499e-01
2.111599999999999966e+01,4.027736009317069432e-01,-2.244075719564514737e-01,-1.890078995743489088e-01,5.081518180165023324e-01
2.112800000000000011e+01,3.944192564921958910e-01,-2.403748550236126935e-01,-1.810136048926219710e-01,5.037344922244677559e-01
2.114000000000000057e+01,3.852525660460478507e-01,-2.562036813524435352e-01,-1.731428949113856808e-01,4.989489867032824710e-01
2.115200000000000102e+01,3.752563739360145201e-01,-2.718507353127361248e-01,-1.654168044237369350e-01,4.937901480964053125e-01
2.116400000000000148e+01,3.644153209204973320e-01,-2.872695146576424441e-01,-1.578577449392352949e-01,4.882538475167432779e-01
2.117599999999999838e+01,3.527162114874036747e-01,-3.024102669214443484e-01,-1.504895126507933834e-01,4.823371557639710150e-01
2.118799999999999883e+01,3.401484152188828936e-01,-3.172199562283227747e-01,-1.433372802117023337e-01,4.760385326446309184e-01
2.119999999999999929e+01,3.267043017394689608e-01,-3.316422670380431703e-01,-1.364275693054658178e-01,4.693580297963775849e-01
2.121199999999999974e+01,3.123797078699301899e-01,-3.456176519372000655e-01,-1.297882007721734288e-01,4.622975059591910574e-01
2.122400000000000020e+01,2.971744345105731266e-01,-3.590834310920115735e-01,-1.234482188822996068e-01,4.548608530943544226e-01
2.123600000000000065e+01,2.810927694810431143e-01,-3.719739513694627076e-01,-1.174377862418770763e-01,4.470542311242509115e-01
2.124800000000000111e+01,2.641440310462729313e-01,-3.842208133584050223e-01,-1.117880457951710566e-01,4.388863083543341204e-01
2.126000000000000156e+01,2.463431251671192590e-01,-3.957531745253683453e-01,-1.065309464878144013e-01,4.303685038493600401e-01
2.127199999999999847e+01,2.277111076484938934e-01,-4.064981364599381530e-01,-1.016990293925063849e-01,4.215152271817123042e-01
2.128399999999999892e+01,2.082757403519101547e-01,-4.163812235365632053e-01,-9.732517150904146375e-02,4.123441100701822903e-01
2.129599999999999937e+01,1.880720285460480423e-01,-4.253269592782838449e-01,-9.344228505814433650e-02,4.028762235113835244e-01
2.130799999999999983e+01,1.671427243607452040e-01,-4.332595451917204965e-01,-9.008297091875086537e-02,3.931362731104379726e-01
2.132000000000000028e+01,1.455387792825711402e-01,-4.401036447994485790e-01,-8.727912592980806294e-02,3.831527644904829111e-01
2.133200000000000074e+01,1.233197268005441077e-01,-4.457852729895714350e-01,-8.506150510041123047e-02,3.729581299585602028e-01
2.134400000000000119e+01,1.005539748177494003e-01,-4.502327876204270107e-01,-8.345924134392974925e-02,3.625888070941425956e-01
2.135600000000000165e+01,7.731898644379420205e-02,-4.533779765797126271e-01,-8.249932715473230760e-02,3.520852596773648702e-01
2.136799999999999855e+01,5.370132744069755493e-02,-4.551572292608157544e-01,-8.220606464317063711e-02,3.414919314613328316e-01
2.137999999999999901e+01,2.979655907835935397e-02,-4.555127767896440805e-01,-8.260049247673073580e-02,3.308571237885759575e-01
2.139199999999999946e+01,5.708956621115596729e-03,-4.543939804691642381e-01,-8.369980046061034629e-02,3.202327890197104732e-01
2.140399999999999991e+01,-1.844896375699860494e-02,-4.517586430155187682e-01,-8.551674462417777067e-02,3.096742332304455170e-01
2.141600000000000037e+01,-4.255712305809007667e-02,-4.475743124974094211e-01,-8.805907763496785556e-02,2.992397236663866256e-01
2.142800000000000082e+01,-6.648877098506197902e-02,-4.418195447599925774e-01,-9.132901099744514251e-02,2.889899990165560317e-01
2.144000000000000128e+01,-9.011159318535770513e-02,-4.344850868414844025e-01,-9.532272666063988653e-02,2.789876836320496212e-01
2.145199999999999818e+01,-1.132890293168060669e-01,-4.255749418068680567e-01,-1.000299562104210588e-01,2.692966102882456969e-01
2.146399999999999864e+01,-1.358817890846154286e-01,-4.151072748383280997e-01,-1.054336456282228135e-01,2.599810598355808411e-01
2.147599999999999909e+01,-1.577495450078280625e-01,-4.031151215945277810e-01,-1.115097225576677648e-01,2.511049299313610206e-01
2.148799999999999955e+01,-1.787527722714095380e-01,-3.896468629554051821e-01,-1.182269810769722290e-01,2.427308487841113305e-01
2.150000000000000000e+01,-1.987546980945365249e-01,-3.747664353685905003e-01,-1.255470961278386810e-01,2.349192532409486445e-01
2.151200000000000045e+01,-2.176233161167981378e-01,-3.585532530355788339e-01,-1.334247760648102910e-01,2.277274533685130498e-01
2.152400000000000091e+01,-2.352334158811809628e-01,-3.411018269002971115e-01,-1.418080573959365764e-01,2.212087076939325270e-01
2.153600000000000136e+01,-2.514685740309659523e-01,-3.225210754635698951e-01,-1.506387408837723263e-01,2.154113342930846220e-01
2.154800000000000182e+01,-2.662230526909329376e-01,-3.029333333465404343e-01,-1.598529630189671202e-01,2.103778828028407266e-01
2.155999999999999872e+01,-2.794035518849877775e-01,-2.824730746675531146e-01,-1.693818917583736761e-01,2.061443911275071816e-01
2.157199999999999918e+01,-2.909307667954653676e-01,-2.612853790275551646e-01,-1.791525306435740039e-01,2.027397481257083023e-01
2.158399999999999963e+01,-3.007407070525186521e-01,-2.395241775641161475e-01,-1.890886112816756448e-01,2.001851800072397825e-01
2.159600000000000009e+01,-3.087857437332697241e-01,-2.173503245319578780e-01,-1.991115509404483286e-01,1.984938737260365238e-01
2.160800000000000054e+01,-3.150353598687618550e-01,-1.949295457056358927e-01,-2.091414498864823668e-01,1.976707455792632018e-01
2.162000000000000099e+01,-3.194765914018647956e-01,-1.724303182336042739e-01,-2.190981022033083869e-01,1.977123578147290950e-01
2.163200000000000145e+01,-3.221141570412389687e-01,-1.500217372397670557e-01,-2.289019942029812682e-01,1.986069806320919784e-01
2.164399999999999835e+01,-3.229702866333172273e-01,-1.278714224954971002e-01,-2.384752661365908966e-01,2.003347918548923356e-01
2.165599999999999881e+01,-3.220842678886430277e-01,-1.061435140814341455e-01,-2.477426155811281450e-01,2.028682020359487692e-01
2.166799999999999926e+01,-3.195117400076472047e-01,-8.499679949083650821e-02,-2.566321244286228209e-01,2.061722890701526978e-01
2.167999999999999972e+01,-3.153237695432056786e-01,-6.458300657897654562e-02,-2.650759955782250321e-01,2.102053236898838995e-01
2.169200000000000017e+01,-3.096057484566834828e-01,-4.504528769269965094e-02,-2.730111899576431189e-01,2.149193655959134863e-01
2.170400000000000063e+01,-3.024561566751336472e-01,-2.651691079819623251e-02,-2.803799591020652016e-01,2.202609094416036195e-01
2.171600000000000108e+01,-2.939852315958152440e-01,-9.120164018014360885e-03,-2.871302729406376986e-01,2.261715603816785991e-01
2.172800000000000153e+01,-2.843135850958874999e-01,7.034528817289887638e-03,-2.932161464641518389e-01,2.325887203034598671e-01
2.173999999999999844e+01,-2.735708049752933468e-01,2.184929179832824364e-02,-2.985978724014838326e-01,2.394462680216522532e-01
2.175199999999999889e+01,-2.618940727399513557e-01,3.523929643941199619e-02,-3.032421697979046926e-01,2.466752194569995504e-01
2.176399999999999935e+01,-2.494268236021998375e-01,4.713309874896323692e-02,-3.071222603989913758e-01,2.542043569457815844e-01
2.177599999999999980e+01,-2.363174679181940241e-01,5.747283897985828310e-02,-3.102178859803524924e-01,2.619608201587388385e-01
2.178800000000000026e+01,-2.227181863571768561e-01,6.621433100193764576e-02,-3.125152802453064482e-01,2.698706544780380412e-01
2.180000000000000071e+01,-2.087838042239603120e-01,7.332706854880144398e-02,-3.140071086894176133e-01,2.778593159462395268e-01
2.181200000000000117e+01,-1.946707438043494554e-01,7.879417449529564632e-02,-3.146923889707377020e-01,2.858521349441486836e-01
2.182400000000000162e+01,-1.805360475937998477e-01,8.261231696527111812e-02,-3.145764029062846356e-01,2.937747434826609161e-01
2.183599999999999852e+01,-1.665364599771067822e-01,8.479161260839630787e-02,-3.136706093197549894e-01,3.015534733367841724e-01
2.184799999999999898e+01,-1.528275504893933379e-01,8.535553297809563011e-02,-3.119925646711428913e-01,3.091157341545762161e-01
2.185999999999999943e+01,-1.395628583189659211e-01,8.434082474233239868e-02,-3.095658557791192145e-01,3.163903820970448977e-01
2.187199999999999989e+01,-1.268930353100112263e-01,8.179744861030764647e-02,-3.064200460699328943e-01,3.233080904698175662e-01
